415.821873, 523.730276, 504.849544, 443.464394, 444.049623, 499.897097, 492.633899, 484.843468, 487.916886, 515.522951, 519.494555, 519.933836, 485.936126, 492.719782, 516.969294, 539.701606, 519.640079, 499.521018, 503.344560, 529.956485, 515.012652, 502.490883, 484.304923, 491.508410, 479.729565, 481.705320, 466.818491, 456.152855, 432.144464, 443.700953, 441.269067, 454.872819, 447.059969, 439.059486, 423.751473, 435.502443, 436.401643, 451.492159, 438.392370, 435.869822, 433.933092, 451.516374, 435.576884, 436.240880, 436.101174, 431.956491, 425.026603, 433.811061, 434.031295, 440.513524, 445.742476, 442.035295, 422.628908, 437.555627, 437.878422, 451.715700, 439.712603, 443.138268, 438.616575, 455.897280, 450.118002, 462.162823, 434.095391, 438.691933, 436.734541, 440.533193, 432.398231, 449.160859, 435.500158, 441.229883, 448.576501, 448.288883, 439.363025, 454.285920, 442.692110, 451.046695, 454.243332, 466.704774, 457.848038, 460.475409, 436.012785, 437.388426, 424.196635, 436.734096, 443.499668, 454.121280, 444.920808, 453.082369, 442.521639, 445.618474, 441.187349, 453.807725, 447.944751, 456.613656, 456.079015, 466.133045, 453.755323, 463.946145, 452.524766, 452.143054, 436.120195, 439.615041, 432.258349, 446.753888, 451.398417, 460.781625, 450.843994, 448.739952, 447.078543, 470.721584, 464.774406, 471.791662, 444.643192, 451.758731, 456.639239, 475.592420, 469.383591, 459.180729, 436.307468, 445.904362, 450.240399, 465.156901, 459.043334, 465.641687, 459.749110, 468.680083, 464.486528, 487.907379, 502.139532, 501.555889, 474.476484, 462.974975, 450.575292, 466.451388, 476.770232, 467.210781, 436.451291, 430.997135, 438.759460, 448.955499, 442.633025, 455.911884, 453.300630, 454.404228, 441.537127, 444.106825, 437.734980, 454.527965, 469.010124, 476.730365, 457.100777, 441.067721, 481.045224, 564.133102, 681.459969, 793.609016, 769.444373, 614.759521, 421.214429, 286.714034, 253.553210, 332.004812, 404.296659, 454.062310, 457.160454, 458.089269, 452.172932, 452.550138, 447.589837, 453.994127, 451.668376, 455.313809, 455.938375, 460.480287, 457.689643, 467.672815, 456.366587, 473.175455, 466.947446, 473.022132, 481.340531, 480.691922, 476.767024, 489.714938, 470.758508, 482.733598, 485.028667, 503.974033, 484.944161, 493.159935, 472.234628, 488.855585, 497.530312, 518.995392, 509.662333, 510.263251, 507.280814, 524.395538, 520.554982, 522.997296, 507.900047, 518.588527, 517.300957, 522.816356, 511.873135, 488.814966, 463.567512, 463.492891, 443.363435, 441.278782, 432.367694, 447.855100, 439.185134, 440.113589, 433.046182, 432.811151, 444.857806, 465.367914, 455.188038, 453.355608, 442.729245, 440.006009, 434.471106, 430.562046, 417.139015, 435.920972, 436.496171, 444.564987, 439.584544, 439.957697, 428.635781, 445.531687, 436.845713, 437.946334, 449.946337, 458.624498, 449.029550, 450.742415, 443.169199, 442.959661, 444.523512, 458.267362, 434.820187, 432.570192, 432.868792, 442.538145, 439.344885, 451.390519, 448.592086, 438.664625, 439.280315, 442.271323, 436.059457, 453.826238, 464.383851, 463.018152, 457.375430, 444.215064, 439.691537, 445.458217, 444.370800, 444.968401, 434.490488, 443.507044, 445.665686, 457.102607, 441.218685, 455.223422, 447.801077, 458.484635, 461.320804, 450.807921, 444.380043, 458.859991, 451.116816, 452.548490, 442.181836, 451.932849, 450.714410, 460.720206, 455.216238, 450.477918, 443.991849, 455.472338, 452.702104, 452.442365, 457.655550, 460.749123, 453.980264, 450.992745, 447.347411, 462.281950, 462.396342, 474.480331, 448.761128, 447.665310, 438.195882, 450.330040, 459.725923, 462.492673, 451.469298, 456.892908, 450.228700, 459.501219, 472.163582, 478.318587, 462.370819, 460.669179, 455.150740, 460.497861, 466.284192, 470.228215, 478.316084, 490.095929, 496.049272, 487.587988, 466.623567, 451.662197, 453.655613, 483.204063, 473.124142, 455.770877, 445.025233, 435.441993, 441.903527, 465.140367, 458.087131, 444.484225, 443.995764, 455.693302, 452.862938, 448.306016, 454.310938, 458.545766, 461.515192, 474.716600, 473.619306, 504.943087, 587.325463, 724.437298, 807.611554, 740.177210, 605.600894, 396.180135, 258.014699, 263.518675, 331.550039, 399.701455, 449.709569, 465.178631, 454.186323, 452.824944, 452.793604, 464.298385, 461.308626, 461.443717, 452.552815, 448.950719, 449.574714, 466.519735, 473.349976, 477.136960, 472.639825, 474.091603, 474.475452, 474.774797, 470.297489, 487.288376, 489.032507, 480.687370, 471.554673, 472.332758, 479.910115, 498.612204, 516.607840, 501.516048, 495.854905, 506.244943, 510.732756, 519.135994, 518.604911, 525.316616, 518.143982, 534.409841, 531.019732, 520.683068, 515.891218, 501.391501, 499.145041, 493.391477, 494.840875, 478.929887, 455.183827, 444.690411, 440.747451, 443.694624, 457.392749, 443.968161, 434.374614, 438.269734, 440.960297, 442.634669, 445.601898, 438.285264, 441.928220, 442.988776, 436.466577, 423.538849, 419.189777, 418.118608, 422.126008, 427.064422, 437.563440, 440.874466, 450.759243, 447.108981, 439.893691, 439.935986, 441.481101, 438.037621, 451.119022, 445.926863, 447.295814, 451.204207, 434.287378, 428.544808, 439.115221, 438.837379, 438.510650, 442.648350, 435.822253, 445.986879, 464.892869, 459.275434, 449.341534, 434.538676, 433.469592, 441.598805, 447.682932, 455.282137, 452.185699, 435.845329, 440.941640, 435.993855, 434.913705, 445.217929, 440.268339, 438.506480, 445.492049, 454.838691, 468.822476, 457.745301, 448.771534, 439.735873, 447.738136, 444.726781, 464.638275, 441.852315, 433.104096, 436.543162, 446.033279, 442.066517, 451.943993, 455.339388, 449.975213, 450.216187, 451.188738, 435.287990, 443.591755, 454.127398, 464.645760, 461.553422, 458.142748, 454.657812, 451.991314, 449.242186, 459.005288, 457.750536, 465.813452, 468.349020, 470.599775, 469.482751, 467.716726, 468.719922, 450.258784, 439.083197, 444.469626, 439.061541, 453.079085, 445.891892, 440.134909, 435.012138, 434.826309, 436.262051, 437.115192, 437.259678, 443.949611, 435.432911, 440.073607, 453.664940, 472.722789, 460.424035, 484.741022, 553.337115, 659.472271, 780.000555, 782.674644, 614.621431, 406.807034, 253.733503, 229.064500, 293.994883, 389.753607, 432.139223, 443.673305, 450.905147, 454.733352, 445.845134, 452.939859, 452.618183, 457.390641, 454.712915, 459.199656, 455.136109, 461.347669, 457.872178, 459.927591, 457.214198, 464.991437, 466.656114, 466.897736, 474.464361, 477.383731, 482.471055, 486.196159, 474.497727, 479.323477, 485.657334, 494.094230, 500.046103, 502.519450, 487.396698, 502.853915, 503.018561, 514.779889, 521.694087, 520.569416, 510.484095, 517.118566, 525.423286, 537.126669, 520.607410, 505.725267, 490.399356, 483.297942, 495.577936, 488.820039, 475.440010, 455.918063, 450.564179, 449.471161, 443.392390, 440.046212, 431.705151, 437.477809, 424.127594, 429.019939, 423.122759, 436.388767, 428.528986, 436.365511, 429.929850, 443.655683, 449.489672, 453.592240, 432.218039, 418.866102, 414.945820, 431.967671, 438.011383, 441.932522, 440.924701, 443.381919, 440.221464, 437.158434, 432.581536, 449.362930, 444.626630, 456.140806, 449.197035, 449.246074, 449.901535, 460.547453, 450.120382, 442.424817, 426.698657, 440.866368, 428.669554, 433.573568, 441.757315, 455.234847, 449.023052, 446.748968, 434.000736, 435.416968, 447.143760, 467.333179, 453.582775, 450.931294, 432.767862, 443.851173, 450.860636, 452.268066, 442.472742, 449.745667, 433.286933, 448.089677, 452.811488, 460.224198, 446.268161, 449.329611, 441.450892, 447.217491, 445.037386, 452.173226, 454.275809, 451.454591, 458.584498, 459.940053, 449.417754, 447.605992, 454.671303, 457.934280, 446.197666, 458.420971, 457.924592, 471.334609, 469.007232, 477.800837, 459.967937, 463.161775, 463.177131, 474.792393, 459.540721, 460.317682, 452.882064, 449.525995, 430.560493, 444.658619, 432.115245, 435.142199, 433.111777, 448.059746, 441.733185, 450.742791, 443.373349, 454.443998, 443.546844, 472.383112, 448.521568, 469.772060, 492.410910, 591.092745, 714.658494, 752.018803, 687.271970, 539.895674, 345.789991, 264.160295, 267.164982, 340.814999, 402.851581, 461.176473, 459.169615, 456.864687, 449.763414, 461.062040, 462.352283, 478.040547, 462.483403, 453.829362, 444.723753, 450.325758, 446.034706, 465.493615, 457.228194, 463.714173, 460.501663, 471.044937, 467.758831, 479.236680, 486.006622, 499.429592, 486.184263, 503.967470, 501.684542, 494.560165, 475.370243, 476.995425, 468.665959, 496.361387, 510.191998, 519.365554, 496.068049, 508.834524, 513.542215, 524.017410, 514.985197, 521.106834, 528.343599, 540.756121, 525.472200, 506.433710, 452.570092, 447.280899, 453.520186, 467.139351, 447.270649, 452.270785, 431.036809, 436.512761, 428.581911, 441.496749, 436.843086, 450.698766, 444.720161, 445.915700, 426.693222, 440.629098, 443.949393, 443.707491, 420.320384, 422.024583, 412.524494, 430.228169, 435.492700, 441.478910, 428.643620, 439.904303, 439.056854, 447.578635, 431.406659, 439.103279, 447.971318, 468.031040, 467.795129, 471.021378, 427.313284, 419.749661, 411.677396, 435.630991, 440.261513, 448.871196, 435.837824, 438.699951, 434.055616, 453.702368, 453.027623, 457.873167, 436.937806, 459.617527, 468.027162, 476.786732, 470.089717, 463.941867, 427.706325, 431.179172, 436.579434, 437.852427, 430.064334, 447.972678, 450.343034, 463.322702, 443.221796, 453.293934, 434.214005, 449.135126, 461.374889, 465.435964, 445.988246, 447.944546, 443.712427, 448.767134, 443.514056, 446.390971, 443.330766, 445.607225, 441.762691, 459.224330, 448.186396, 453.111606, 453.845876, 457.402426, 448.112466, 463.199619, 464.964402, 479.127723, 474.900912, 486.559311, 464.304962, 455.798921, 448.413479, 451.737107, 444.935615, 447.885800, 437.665457, 442.288628, 437.754986, 445.766735, 441.836264, 447.937859, 438.523952, 454.586784, 452.197469, 461.687836, 450.971672, 466.191487, 439.984567, 443.833652, 449.929809, 462.169305, 469.273402, 556.867389, 666.430171, 750.991538, 768.922196, 638.307688, 418.713586, 290.193883, 271.613573, 344.526624, 421.142489, 460.524538, 445.977075, 440.640394, 433.057207, 444.004327, 421.737235, 450.503148, 462.641061, 469.880505, 451.819454, 447.798443, 440.855999, 464.502070, 467.365664, 477.181198, 453.476227, 473.178178, 471.656721, 481.401924, 477.199592, 482.085584, 478.982154, 474.358750, 460.779211, 473.259011, 475.522805, 502.068127, 506.114908, 504.652392, 487.293838, 500.582049, 496.270384, 510.229888, 515.167897, 536.903004, 528.414617, 534.032177, 520.960603, 496.946480, 489.720762, 494.179284, 473.533391, 479.572382, 468.274959, 463.810804, 454.863259, 462.664839, 442.034359, 441.996501, 434.053930, 442.218257, 445.845658, 456.666390, 447.292457, 436.381518, 413.506642, 417.598385, 417.776931, 427.435418, 430.841043, 443.473998, 425.646260, 439.710286, 436.760073, 440.981605, 436.933729, 438.469348, 446.283048, 451.928046, 457.572965, 476.821548, 428.516409, 429.296524, 415.428202, 428.692279, 437.611864, 448.242761, 436.345674, 431.863162, 431.712036, 458.023322, 445.205370, 450.067169, 447.905378, 458.887527, 463.956267, 480.098415, 456.203033, 436.977189, 425.625871, 426.892748, 432.543907, 439.273757, 433.300508, 439.547410, 442.827111, 456.612993, 442.082212, 441.275066, 439.965315, 454.759832, 459.030550, 474.304193, 450.934160, 447.517502, 451.129322, 452.779065, 443.794166, 447.811550, 429.274664, 433.693256, 431.686273, 446.731976, 451.298722, 457.878576, 454.792213, 460.512662, 450.020910, 465.053659, 460.275582, 449.460421, 441.309755, 443.909979, 437.222965, 450.862327, 432.132613, 443.202413, 445.608746, 470.905641, 480.572541, 481.811449, 468.297845, 473.638385, 461.807284, 457.758920, 460.082729, 455.975159, 447.058857, 468.183745, 439.742719, 439.735838, 435.531937, 431.294299, 424.101918, 426.696826, 427.363701, 440.316596, 441.067719, 449.641109, 439.600707, 443.449544, 455.637207, 460.394538, 463.207873, 528.838253, 632.875349, 754.843061, 801.099760, 694.565444, 487.878537, 304.934549, 222.178078, 280.654421, 365.739030, 438.671209, 446.362075, 443.082041, 444.523703, 459.091905, 456.598460, 478.799558, 456.274751, 464.248842, 453.851727, 454.757694, 447.026726, 453.182684, 457.082525, 449.929340, 446.828497, 462.903228, 457.228961, 469.323235, 477.756701, 481.385239, 490.200640, 499.975961, 495.911595, 490.588707, 466.893685, 479.920756, 474.392819, 487.498731, 501.221691, 502.143044, 501.264435, 505.168442, 512.150554, 520.544714, 520.525423, 535.744006, 519.718685, 526.932869, 512.101144, 502.458956, 479.032199, 466.043863, 458.861745, 454.592550, 452.234866, 457.600618, 442.660606, 446.400218, 442.465091, 443.388415, 442.377005, 437.038808, 438.819105, 440.322222, 428.942780, 443.512278, 419.336815, 413.481942, 415.342061, 432.660146, 435.018787, 444.102507, 436.581256, 425.183772, 423.857404, 447.527309, 435.662259, 438.718318, 439.863448, 449.119169, 455.558683, 465.926387, 430.077722, 417.168127, 417.219958, 430.583571, 450.552410, 451.819636, 438.603274, 439.630615, 440.308519, 458.046412, 444.721540, 439.174888, 439.289144, 445.673382, 447.682133, 460.441823, 453.334803, 447.445776, 444.692659, 438.692741, 420.199623, 429.118039, 441.021779, 453.137081, 461.611222, 446.532733, 439.924818, 444.872627, 446.355755, 452.653051, 455.547950, 450.876617, 457.375191, 466.554504, 451.848539, 444.034429, 429.818724, 434.373757, 439.572850, 443.204831, 449.033405, 446.240845, 450.300725, 449.281351, 444.484514, 444.230818, 462.555377, 469.222628, 473.623623, 472.354816, 451.947313, 451.039522, 460.744380, 462.591485, 465.306344, 472.751039, 474.874921, 472.936197, 464.753905, 458.338417, 450.748886, 452.435300, 450.684066, 449.729253, 443.873330, 448.179690, 457.650680, 461.827363, 441.677419, 422.253456, 425.195386, 429.580001, 447.692859, 453.659700, 453.675416, 454.048542, 449.701121, 453.263256, 466.155362, 517.443834, 641.793107, 781.784199, 802.400971, 685.099686, 499.321804, 303.857789, 236.975319, 299.383065, 364.766541, 422.146361, 452.400707, 462.571303, 458.561128, 453.460123, 443.323602, 447.746039, 448.951946, 462.837872, 462.619782, 450.744977, 458.938699, 464.558915, 466.404211, 470.187417, 465.312174, 465.081824, 475.952177, 473.566604, 474.763616, 474.928007, 472.572101, 468.380932, 476.016786, 478.546755, 492.481312, 502.261626, 502.932345, 504.204554, 506.731194, 513.058324, 519.547077, 518.930025, 515.205789, 517.861985, 524.039660, 527.521977, 522.685350, 506.968292, 500.646438, 498.611143, 497.941686, 486.795607, 477.565029, 470.756599, 465.825853, 466.780316, 456.882700, 429.551640, 425.318535, 419.277303, 427.552726, 427.714349, 429.526279, 429.478352, 436.416520, 433.150320, 438.647219, 431.382002, 424.253314, 429.949451, 435.907210, 438.823554, 441.848877, 451.331900, 441.493547, 436.550557, 441.055936, 433.557769, 452.503267, 453.318896, 453.834596, 436.835004, 430.916031, 427.971395, 436.264266, 449.262416, 451.598954, 452.467617, 445.521250, 452.829209, 448.346435, 451.856498, 451.823057, 439.465263, 437.948539, 431.211516, 446.352223, 457.109544, 454.268193, 446.569560, 437.185935, 430.755327, 446.297533, 457.908134, 448.259383, 441.445826, 454.169368, 466.176916, 464.385121, 451.224726, 431.107821, 427.352580, 450.323263, 460.080664, 451.341897, 434.489743, 434.885033, 453.917770, 460.994388, 450.713724, 453.032817, 459.601555, 478.006954, 480.141381, 479.921371, 448.062606, 465.139284, 471.766311, 473.854765, 464.405034, 451.054354, 438.376042, 438.166353, 437.945761, 450.460845, 442.568972, 443.069829, 430.136255, 441.251166, 447.890813, 464.548789, 453.378854, 449.570577, 439.047617, 443.338538, 441.808246, 444.780206, 436.102396, 452.015694, 452.143048, 480.323647, 531.553968, 662.161907, 783.691351, 771.550622, 647.240940, 451.532455, 274.532056, 260.575152, 324.090939, 369.156334, 402.811314, 433.227752, 430.807679, 447.326501, 445.039811, 447.121194, 438.620537, 453.486529, 460.270160, 467.797808, 471.198593, 498.066547, 490.082972, 477.891876, 455.762040, 469.339239, 464.390070, 479.241072, 473.343440, 465.351982, 461.137202, 490.905567, 480.089477, 480.954417, 474.027308, 488.101392, 499.487966, 515.893119, 510.361754, 506.091212, 503.447775, 530.920317, 531.040463, 530.090469, 520.226621, 534.862373, 539.691347, 552.229764, 518.263647, 501.625584, 486.853949, 493.577400, 511.001030, 482.152544, 459.133642, 458.193560, 451.768544, 460.371484, 439.273694, 428.166673, 416.750887, 430.175180, 434.148892, 430.617601, 424.033156, 441.442181, 432.694801, 439.651260, 409.675897, 416.102911, 415.842943, 439.283762, 430.760182, 424.208805, 416.502458, 428.388565, 427.377295, 438.961311, 429.596157, 434.697751, 440.572927, 445.678669, 431.127155, 440.865104, 435.280911, 455.708892, 451.233610, 449.568181, 426.289239, 428.322913, 417.194743, 425.609165, 427.266542, 439.630534, 438.371972, 459.973010, 443.848445, 448.554211, 426.103352, 432.819224, 437.751533, 449.870131, 445.593470, 447.413410, 424.867403, 432.295474, 441.845404, 442.030546, 434.296975, 440.586846, 429.668917, 438.865614, 437.295520, 452.605075, 448.770733, 470.000242, 466.165374, 447.322826, 430.869452, 438.417145, 437.140652, 462.787930, 456.797453, 466.053696, 458.312146, 466.062137, 458.540978, 446.862655, 437.626586, 459.168683, 449.201888, 460.849130, 443.957698, 426.074944, 414.903814, 433.067555, 425.211001, 436.714332, 434.689703, 440.584534, 430.410311, 431.033358, 432.463124, 439.427944, 445.720203, 461.039777, 445.005605, 473.548361, 543.390822, 678.826027, 775.062795, 753.813685, 603.651325, 410.556280, 245.458636, 253.038984, 314.601874, 380.422271, 430.183469, 449.040600, 455.156809, 475.585298, 459.412991, 446.691862, 423.064895, 435.128463, 437.452168, 460.958029, 451.993865, 462.037621, 460.632349, 466.898419, 447.640475, 470.216303, 472.205649, 484.635122, 484.820059, 495.530132, 479.280611, 496.301284, 493.501480, 489.859695, 463.816269, 475.992007, 478.787158, 492.142070, 508.662953, 512.733488, 502.858398, 513.388742, 512.623021, 527.479259, 526.915470, 535.675071, 524.504920, 530.134101, 525.132425, 516.104872, 500.158318, 484.597652, 447.631637, 460.763498, 452.492060, 450.809921, 444.470176, 441.677398, 429.485931, 441.783098, 437.628564, 439.794016, 427.201884, 441.608489, 444.999893, 454.987051, 430.791586, 433.441632, 416.393726, 423.082438, 424.474984, 434.461259, 420.570727, 431.907837, 436.495997, 443.824958, 431.302966, 435.328525, 424.044053, 436.637522, 435.460833, 447.274577, 437.171158, 443.931407, 447.081737, 466.751326, 458.746834, 450.665088, 435.383339, 431.833547, 435.482062, 459.734609, 446.701148, 442.649172, 437.026386, 438.993811, 440.365268, 461.356877, 449.105759, 450.277281, 459.561628, 463.122653, 444.646625, 458.424797, 431.238342, 442.094745, 440.825596, 454.305119, 444.108456, 444.384210, 439.015663, 449.832230, 444.747073, 443.044368, 429.648279, 446.990881, 451.766245, 478.050827, 464.021270, 442.844630, 425.997424, 446.304099, 454.146024, 464.522094, 445.599309, 440.656408, 444.697551, 458.177541, 456.042264, 457.961282, 450.096878, 458.935224, 473.964491, 481.129958, 471.704080, 474.837700, 467.947292, 469.172741, 448.054023, 468.820641, 442.290656, 454.202852, 443.047088, 446.733175, 439.875830, 453.392083, 444.019370, 452.403571, 444.169950, 456.889017, 449.661516, 461.728890, 441.378809, 435.731935, 445.806870, 451.748688, 449.698793, 461.797877, 475.162226, 564.666115, 701.578895, 801.815777, 767.077256, 609.799405, 394.898771, 259.447407, 257.435081, 337.476185, 404.999701, 454.406537, 445.702213, 449.913637, 447.559198, 453.566612, 447.116715, 451.134563, 447.358083, 458.011711, 463.944146, 478.955052, 479.025253, 484.009191, 471.709051, 471.048179, 462.850502, 464.917200, 458.321225, 470.053915, 470.729096, 481.070436, 475.058526, 487.685266, 483.246507, 483.693126, 481.425272, 491.787205, 504.860352, 540.872807, 532.950710, 519.331274, 493.100469, 502.592105, 518.009288, 536.364862, 517.712377, 508.789301, 491.725172, 510.951108, 504.698936, 492.408180, 482.984101, 474.136864, 470.260341, 476.407333, 463.531386, 462.967187, 464.672342, 471.725826, 444.102026, 429.531813, 413.162259, 418.234043, 429.525875, 448.007094, 446.832343, 445.708269, 429.770536, 433.657517, 426.651200, 438.857019, 441.918664, 446.781760, 439.501300, 441.396978, 441.103469, 449.624675, 440.255184, 439.146470, 437.428672, 441.282133, 438.843253, 442.108581, 427.923830, 436.649118, 438.278921, 453.485096, 454.534459, 449.441133, 443.651336, 444.620571, 451.145903, 461.282182, 460.090116, 460.890864, 441.624291, 433.827795, 433.723554, 440.581718, 444.855416, 456.871625, 447.644707, 453.807814, 453.772931, 465.393385, 466.888811, 459.501255, 458.374912, 459.534609, 457.425748, 465.470810, 443.722474, 437.507263, 423.162097, 440.509828, 445.940429, 452.491096, 456.946477, 459.482614, 454.200154, 461.568356, 450.595910, 448.360212, 460.685357, 477.723611, 479.938808, 463.186355, 440.541483, 444.905737, 435.870102, 454.997243, 456.820080, 447.113205, 441.402178, 457.746086, 455.438685, 454.445927, 461.688166, 468.285547, 470.179308, 476.082447, 478.998561, 492.430893, 489.737323, 493.182736, 479.648787, 460.079992, 441.813191, 456.760854, 449.894952, 446.329141, 446.219798, 442.600043, 442.834330, 446.510711, 452.963378, 453.273002, 438.352380, 441.111626, 454.262101, 464.279720, 468.141006, 468.592099, 456.492358, 453.253155, 449.783459, 446.178755, 472.079533, 561.141976, 700.877992, 811.729709, 773.371866, 601.279548, 406.155140, 275.742277, 267.541164, 341.296886, 412.551796, 455.512801, 460.539257, 477.905934, 454.221852, 443.386919, 446.119220, 457.643663, 453.487205, 442.992319, 447.905615, 451.687517, 463.753582, 483.356853, 473.486098, 462.814225, 459.417094, 476.871007, 478.502074, 486.508774, 481.779633, 489.122100, 483.724805, 486.167557, 487.983846, 482.676588, 483.106607, 484.306258, 497.977922, 510.903891, 508.798498, 508.689110, 508.517334, 507.901693, 521.126822, 546.347965, 533.212164, 524.527362, 514.520447, 508.510564, 508.624423, 503.497295, 490.393365, 480.486969, 463.397902, 456.501489, 455.012650, 444.565379, 448.380394, 456.289785, 452.398718, 442.947278, 433.688614, 440.714787, 433.305430, 433.724755, 433.677504, 426.738177, 436.301296, 437.885509, 423.813531, 425.418616, 429.931868, 445.329652, 463.491915, 457.891253, 442.902807, 442.892925, 442.873871, 441.342324, 437.206126, 446.378670, 443.812360, 446.964801, 443.125117, 440.609166, 437.921047, 447.910906, 453.105934, 451.468372, 448.744689, 446.251760, 453.560658, 452.934973, 451.961148, 461.958106, 459.685898, 447.085610, 440.519575, 438.912650, 439.383941, 441.068661, 447.651622, 446.947458, 445.319474, 444.059527, 446.753864, 444.889718, 457.082265, 475.220851, 469.205036, 445.595275, 430.365636, 432.670618, 443.206545, 450.974859, 452.091558, 440.469886, 449.712842, 457.995751, 457.414529, 441.622314, 442.486941, 439.684640, 454.619631, 463.068780, 452.232680, 444.135195, 450.979650, 438.679998, 454.728124, 451.511265, 458.648302, 453.261775, 444.893530, 451.029074, 458.637001, 460.588925, 470.770675, 446.905001, 448.872032, 457.475130, 463.441965, 474.272711, 467.283356, 471.860371, 483.949646, 479.102414, 476.864057, 457.872840, 458.266839, 463.168649, 462.664726, 453.823242, 446.335722, 441.098460, 439.730707, 439.114071, 440.142666, 439.499290, 447.028664, 452.085905, 441.776391, 435.122409, 443.414519, 442.862422, 452.427481, 456.991600, 460.668156, 458.264495, 480.322801, 558.432639, 675.580932, 783.844608, 790.629192, 638.975743, 435.046887, 269.039410, 242.379790, 310.162338, 393.108608, 441.383929, 454.463130, 453.333247, 458.931049, 451.697303, 453.682269, 445.488863, 466.718366, 465.162449, 467.850472, 463.278493, 454.618897, 456.265455, 458.872339, 465.126257, 475.668676, 474.618399, 480.769165, 471.439524, 472.798690, 471.742637, 486.642391, 482.811198, 485.893567, 478.900695, 491.602292, 490.138348, 506.864915, 519.036930, 506.703101, 489.619311, 497.698921, 503.838279, 523.918692, 540.645846, 534.455072, 514.874149, 506.167510, 509.648030, 518.222590, 501.749345, 490.367765, 472.960019, 466.062498, 455.207016, 477.489045, 469.755544, 450.969422, 440.152587, 432.572365, 414.061738, 426.872140, 432.609854, 425.709326, 418.822514, 427.671206, 428.647839, 425.992346, 427.972964, 439.298068, 437.317989, 457.452539, 447.477468, 442.766093, 424.639896, 428.028009, 432.329260, 440.187515, 428.615843, 428.559110, 423.519810, 433.761751, 438.271376, 450.818237, 443.997072, 440.729612, 436.691793, 455.568657, 453.639263, 461.305330, 464.034994, 450.637228, 431.256118, 432.603126, 429.516774, 427.984470, 432.615606, 447.575455, 433.374601, 441.752388, 445.486493, 451.984294, 435.821180, 452.269774, 455.687023, 453.422520, 458.994600, 455.001285, 422.134698, 431.397540, 432.914471, 439.434269, 441.876714, 448.460409, 427.462427, 444.943862, 448.104008, 456.345371, 450.380448, 452.656866, 444.130321, 448.084809, 459.315391, 456.372367, 438.326781, 439.045107, 432.903786, 446.575084, 440.021328, 454.860271, 444.880521, 449.554245, 449.392517, 466.267456, 459.171108, 489.601266, 484.401800, 479.891445, 453.925867, 448.225932, 444.799332, 451.046245, 436.471310, 437.318985, 426.213620, 439.623716, 438.186617, 443.201466, 425.296725, 434.111254, 438.351849, 450.540787, 441.866920, 450.736395, 451.030102, 447.155658, 458.986970, 455.697012, 436.039837, 464.770057, 532.936097, 656.402288, 773.036978, 778.797920, 630.082611, 420.644094, 248.672642, 230.229389, 300.714023, 393.644925, 433.756178, 438.651751, 437.899548, 455.970298, 459.350126, 461.395427, 443.450193, 442.338164, 444.749824, 459.752541, 454.997107, 464.389948, 459.355517, 470.197101, 465.154969, 472.498812, 469.492662, 480.531798, 471.696497, 490.679012, 485.263208, 482.916996, 482.658129, 487.618199, 470.494527, 480.782464, 480.331397, 501.812351, 500.807138, 513.659293, 515.142502, 525.749709, 531.774621, 539.998268, 527.471498, 513.073711, 506.104870, 531.039775, 508.490539, 513.669405, 501.764781, 502.776996, 501.089635, 479.650217, 466.996370, 443.013841, 442.918915, 469.265162, 446.222665, 434.480197, 415.524034, 419.775509, 420.884797, 436.948439, 434.519467, 434.358093, 422.276989, 434.300418, 426.727693, 432.073959, 437.447387, 440.522416, 426.228566, 443.904120, 436.201649, 441.649503, 437.309562, 436.816549, 430.188238, 447.691973, 441.349647, 440.833728, 433.037746, 437.592719, 440.677860, 457.042808, 448.484629, 451.244720, 449.481950, 446.555444, 442.423016, 447.549749, 439.791764, 449.438505, 448.885086, 449.487386, 438.532704, 437.655956, 430.965551, 441.153179, 441.611682, 454.057809, 450.738329, 451.738854, 439.984563, 452.428732, 436.214471, 442.461034, 443.668475, 461.575472, 458.364125, 475.469454, 445.684067, 440.403406, 431.196547, 442.797360, 436.973980, 445.942105, 437.832603, 449.358056, 452.345107, 457.323472, 447.536964, 459.990440, 451.472470, 451.719983, 433.672754, 437.527154, 438.986037, 462.281324, 460.580123, 459.843518, 443.613763, 460.105309, 455.427614, 447.865439, 441.318790, 446.249135, 452.103449, 473.544372, 463.364679, 470.759936, 472.204062, 495.830383, 486.268249, 476.689881, 452.139244, 447.675367, 439.643872, 447.071376, 435.324712, 445.078271, 441.991465, 450.856599, 439.393548, 447.152156, 435.507283, 453.855532, 449.342801, 434.168013, 438.995858, 462.722007, 455.553151, 473.530350, 459.921695, 456.020719, 494.670026, 604.669256, 727.584747, 762.367534, 706.387223, 550.881857, 347.358448, 260.589169, 292.208921, 367.189662, 428.904938, 473.830802, 447.277983, 437.281489, 435.287315, 449.552506, 440.332906, 451.580976, 441.940181, 460.401399, 459.806550, 468.424887, 460.511703, 459.998280, 453.026985, 465.291140, 479.639847, 495.718555, 477.443081, 475.985666, 460.745679, 468.557044, 468.793886, 483.712231, 488.915342, 486.130895, 482.166814, 501.996170, 487.904031, 492.822107, 494.935085, 509.490183, 515.248714, 531.003916, 519.607609, 506.737479, 492.439120, 515.265640, 529.655165, 528.980938, 506.078132, 485.550438, 458.376080, 465.091605, 464.980580, 465.154658, 453.838842, 453.639769, 436.188428, 436.595844, 426.905486, 436.072123, 433.914943, 438.409792, 435.312006, 443.919703, 437.449132, 447.958110, 429.768859, 427.955868, 416.059244, 440.319325, 424.046261, 434.248266, 436.926125, 443.298552, 438.019174, 443.086941, 420.113500, 435.547248, 439.685281, 454.840549, 460.568519, 437.715345, 428.143129, 443.806849, 431.159021, 440.582066, 441.543884, 442.115533, 433.730625, 443.111544, 440.029142, 439.716647, 437.169924, 450.423019, 435.670475, 444.443586, 445.457523, 456.706722, 456.429860, 456.104934, 444.687954, 445.136442, 438.163563, 440.558075, 449.040000, 445.814939, 438.677069, 439.744448, 430.702928, 452.758566, 458.809749, 468.683841, 457.783073, 444.915286, 442.530534, 455.459157, 446.224907, 453.172940, 428.983220, 443.210282, 443.804869, 452.365040, 452.451741, 463.127853, 453.207527, 466.282595, 449.247563, 445.428710, 438.163910, 452.716922, 449.559775, 460.291656, 457.596134, 467.545608, 457.334851, 447.754390, 447.694441, 476.841117, 496.256810, 508.616559, 488.874023, 454.937516, 447.851109, 462.419761, 442.619219, 440.391129, 435.677702, 449.552865, 462.273384, 458.811022, 441.534666, 434.474437, 431.865103, 451.603387, 447.581571, 444.975297, 448.051623, 458.732925, 451.319273, 455.360609, 470.216680, 478.626630, 492.423742, 568.439712, 674.687565, 771.298539, 767.500444, 631.291810, 412.984407, 262.675576, 247.857346, 320.878899, 392.000648, 448.005795, 447.389570, 458.660975, 462.042212, 453.176357, 455.619744, 457.382235, 446.712550, 446.796153, 452.874625, 458.132316, 459.693069, 465.994624, 452.525678, 449.667276, 469.505023, 498.014352, 496.201661, 481.860644, 480.341710, 472.764187, 462.898539, 471.099180, 475.024093, 488.515120, 487.955729, 504.465077, 493.088530, 499.856520, 517.915485, 525.641055, 537.964749, 519.914215, 511.325128, 526.597443, 524.175548, 539.721002, 535.551959, 522.205428, 493.492850, 489.578982, 486.668280, 471.935026, 454.002676, 456.273293, 452.440053, 461.746502, 462.065492, 443.073517, 424.414381, 433.187561, 436.183726, 452.549073, 445.082313, 423.643899, 418.832668, 419.290232, 425.039562, 436.610176, 436.314751, 426.669686, 415.106528, 422.876324, 434.676922, 448.724170, 443.366938, 438.571083, 435.718395, 443.183926, 450.115017, 452.067485, 437.082195, 427.618675, 424.735962, 437.804590, 439.390495, 440.626528, 448.566614, 443.107544, 442.375600, 441.988856, 452.785309, 444.070757, 447.959610, 442.740601, 437.368168, 435.536665, 447.259970, 453.144787, 454.120646, 442.161964, 438.525565, 431.595017, 428.766423, 440.534390, 440.031346, 441.491031, 444.059025, 447.294446, 440.973289, 435.132753, 432.871653, 446.213244, 456.392916, 466.670050, 459.256554, 442.223045, 444.144545, 444.092141, 455.446507, 449.405548, 440.920089, 450.255425, 459.807760, 471.957177, 487.316663, 467.918688, 447.755001, 448.157546, 446.934763, 450.768794, 461.644543, 452.348989, 430.488796, 430.439312, 436.666267, 440.915091, 447.905213, 437.539333, 428.762785, 427.240249, 438.379078, 441.709132, 446.603964, 435.637790, 454.362777, 465.705642, 462.638393, 504.256735, 572.474085, 686.494650, 780.221920, 727.001807, 552.339120, 344.307078, 212.792233, 237.510862, 333.412627, 412.619884, 446.039778, 446.220313, 447.831382, 448.044964, 460.015102, 451.515590, 450.357912, 454.150503, 457.126664, 464.922588, 466.443411, 472.275537, 469.020790, 456.266827, 457.395157, 456.415204, 462.381685, 465.730942, 473.591538, 480.227350, 482.719666, 477.782805, 483.672520, 482.164722, 497.218707, 502.995228, 499.640980, 496.684410, 502.693709, 504.829916, 516.844996, 498.447643, 502.665107, 506.474712, 507.855226, 516.429169, 524.516478, 516.797696, 505.287704, 497.896851, 495.675509, 485.429163, 496.633836, 482.279664, 454.760057, 435.926541, 437.147980, 435.989455, 441.651425, 437.947090, 429.816317, 424.273636, 435.486082, 426.351664, 436.392769, 428.160088, 432.601456, 432.215848, 443.471407, 435.489072, 438.448599, 435.756727, 428.578273, 428.016058, 433.503627, 435.216889, 438.253962, 430.525754, 436.192381, 435.765613, 443.121101, 444.905392, 455.830341, 439.457302, 446.938551, 444.153275, 443.573324, 443.252288, 450.644308, 450.335376, 448.384325, 439.074771, 439.375441, 430.521689, 446.029993, 452.873402, 469.452651, 443.736491, 447.116471, 429.653920, 429.323459, 440.946652, 452.166852, 440.469533, 452.466721, 449.089293, 454.727937, 442.380036, 439.284203, 432.122674, 451.474415, 454.396333, 469.003387, 442.073601, 433.287841, 432.449894, 453.632220, 446.054416, 456.265751, 449.387376, 446.979101, 447.251089, 453.676662, 445.003411, 451.719608, 466.870951, 469.877708, 471.108919, 475.487479, 459.064073, 466.222261, 452.611958, 446.961061, 446.848358, 463.985313, 449.579858, 445.923091, 432.066451, 430.318952, 438.256946, 452.290781, 445.398617, 447.235605, 437.018802, 458.120480, 456.439670, 444.613879, 439.269223, 465.592938, 459.820328, 496.221660, 566.310713, 644.980649, 728.332982, 750.760485, 618.235482, 422.590417, 266.011165, 253.935452, 313.885295, 416.683434, 459.125346, 463.540920, 438.900205, 452.389568, 457.093620, 446.539136, 442.841239, 458.644589, 456.336428, 460.097688, 450.343820, 461.185835, 450.131042, 453.556098, 465.240682, 469.624429, 472.522900, 497.317833, 481.607773, 474.580825, 466.327169, 476.700367, 476.716102, 481.833263, 479.216764, 490.804500, 488.914634, 494.415589, 494.855647, 495.461779, 483.494548, 499.616682, 511.023641, 522.289828, 520.586903, 528.875443, 508.687402, 515.836195, 520.128413, 517.613650, 486.996813, 477.750289, 457.900214, 468.078726, 460.216893, 454.907925, 436.616390, 443.264910, 436.629110, 442.437772, 433.022824, 438.939612, 436.440943, 463.648422, 451.974955, 446.754016, 421.723943, 437.889894, 430.474932, 443.390589, 449.407625, 439.421924, 417.652763, 433.664517, 431.315495, 442.347245, 446.715083, 450.551677, 425.228558, 433.623861, 436.875304, 450.141330, 455.955685, 457.137047, 446.288365, 444.552580, 438.388132, 443.780684, 439.011346, 448.866944, 439.521020, 454.502523, 433.001261, 439.109979, 432.436645, 441.294780, 458.148198, 458.284751, 446.259054, 449.144849, 444.327583, 450.425887, 453.101276, 453.987972, 430.447331, 444.630142, 444.027737, 452.699574, 444.473781, 456.040729, 449.044720, 454.134130, 446.420439, 446.783001, 447.125303, 459.207462, 470.321585, 468.884509, 438.235326, 442.958716, 431.204782, 454.236277, 453.357174, 458.560943, 455.077805, 456.615917, 451.489738, 468.263824, 463.940634, 475.773268, 469.627308, 479.289353, 467.811353, 471.541255, 480.734655, 466.728851, 451.744074, 442.916383, 432.740650, 440.495941, 434.821279, 447.066719, 441.560591, 448.358521, 446.118294, 453.263216, 447.141312, 453.036540, 445.653640, 449.764271, 442.509135, 461.321152, 466.350252, 483.707768, 503.792226, 589.157723, 699.034514, 756.063336, 695.198482, 541.652894, 340.479487, 249.665598, 276.956269, 359.007322, 420.473777, 463.304549, 455.242435, 452.415329, 458.889886, 462.822348, 456.124602, 467.984556, 451.725860, 457.166818, 443.538173, 455.714868, 452.108475, 461.379754, 454.303735, 468.539233, 462.256331, 474.534041, 463.178958, 468.397797, 466.419574, 495.661282, 487.921107, 486.296328, 475.819778, 486.716641, 481.341459, 497.313129, 481.603918, 486.600022, 494.340292, 523.554146, 526.822436, 524.217557, 501.915331, 510.084241, 505.433378, 520.546351, 523.146176, 521.877257, 496.328358, 496.662021, 468.159603, 471.814315, 460.373106, 464.714727, 452.086873, 450.730005, 435.448795, 440.867574, 430.026781, 436.479960, 434.481779, 453.233328, 443.025628, 445.990319, 434.451885, 438.845324, 433.080770, 432.263893, 425.380946, 423.676959, 426.158164, 447.334461, 432.303757, 430.701187, 422.232495, 437.211480, 447.229639, 459.934704, 438.314907, 442.848742, 440.124864, 447.449564, 456.460389, 458.158654, 427.918116, 443.333481, 435.748650, 440.071672, 438.531323, 444.619159, 429.244893, 437.608283, 442.923217, 454.221422, 445.957065, 450.922806, 447.125615, 457.920851, 462.811211, 469.287147, 457.252229, 445.413080, 435.661026, 447.012575, 431.470052, 445.407541, 434.333685, 441.342315, 447.942932, 450.734195, 440.690698, 445.351764, 432.765103, 451.422440, 462.697678, 472.908022, 460.902567, 458.699030, 435.459266, 442.708088, 440.184169, 447.918369, 444.202095, 446.375821, 440.345243, 455.446779, 446.206006, 459.585079, 455.117484, 454.544049, 455.699598, 473.161899, 469.338704, 486.287139, 475.756300, 471.128492, 471.039432, 466.561411, 462.235990, 459.677490, 443.464219, 455.116299, 443.805594, 439.094018, 428.008981, 441.656376, 444.039843, 456.661011, 455.090188, 449.930790, 453.570163, 463.582178, 447.992347, 436.792445, 433.225583, 445.944524, 461.753508, 465.212388, 461.107609, 537.725343, 661.139980, 762.255761, 781.561404, 653.827477, 443.726844, 291.041421, 240.052165, 293.119624, 384.051822, 454.705593, 463.996961, 449.466166, 432.779906, 438.379749, 454.621401, 460.741606, 457.809623, 459.182355, 454.902003, 459.835932, 463.276973, 468.212808, 462.613899, 482.663170, 473.463832, 461.540193, 463.454312, 462.175080, 473.657934, 490.187961, 478.182424, 475.376425, 478.028631, 487.120768, 486.714822, 493.333611, 492.570497, 487.243237, 495.137419, 511.166269, 514.134930, 533.418342, 542.637149, 535.020504, 518.524037, 509.499790, 497.396022, 503.034704, 499.595235, 498.363347, 477.499199, 475.314719, 459.331194, 462.923685, 463.894111, 453.925296, 443.848779, 448.135033, 445.411679, 454.895793, 460.352249, 446.981810, 429.832357, 422.229839, 429.056247, 429.472147, 424.964516, 429.905271, 418.114084, 430.645808, 438.704333, 440.861701, 431.576498, 432.588801, 436.051995, 447.980106, 453.395394, 450.457028, 445.098151, 439.069612, 436.447402, 446.470778, 443.986782, 441.889675, 443.580475, 432.877476, 430.865586, 437.202758, 433.662882, 438.886294, 445.840106, 454.846138, 461.623418, 459.597883, 450.941861, 437.792703, 434.472414, 454.959830, 452.119845, 454.173918, 445.296882, 434.768974, 435.259204, 443.250773, 451.228021, 449.724934, 454.225253, 440.341273, 441.391760, 442.517706, 454.915011, 465.722419, 465.852222, 462.921463, 444.314369, 448.556602, 441.569304, 437.845457, 439.516933, 445.860464, 451.401480, 453.343070, 451.701140, 445.520208, 434.149217, 440.574971, 445.068437, 446.343955, 459.629673, 467.748108, 461.763418, 457.125082, 461.752964, 457.055034, 471.810112, 464.696290, 457.565169, 465.629719, 466.095781, 479.962192, 473.234815, 450.525910, 446.413072, 441.911957, 449.986928, 454.711802, 448.542310, 445.618275, 453.013440, 449.077086, 454.338914, 446.224449, 441.396969, 445.451597, 440.789928, 425.919262, 427.080602, 435.638487, 441.015357, 456.895149, 459.893865, 475.463650, 546.219509, 671.293168, 772.616902, 763.833140, 657.619788, 445.148524, 283.051106, 241.778484, 304.382804, 383.359552, 444.070653, 447.469190, 439.589469, 432.697634, 444.639655, 443.178027, 446.233518, 447.866015, 461.801836, 461.201955, 459.238906, 458.592756, 472.661292, 474.763831, 482.476355, 467.724369, 458.370762, 448.933533, 458.770993, 464.281289, 469.125497, 478.601839, 484.910101, 484.451621, 482.150463, 486.519062, 487.664835, 493.523879, 504.667017, 509.384092, 507.835462, 502.784509, 505.837074, 509.950550, 512.314312, 527.418815, 522.699452, 501.108714, 502.142153, 491.454248, 492.128895, 485.912063, 487.526456, 478.764991, 471.845676, 462.544292, 457.801942, 446.128173, 450.483373, 445.246490, 429.339637, 421.305601, 427.693893, 428.233264, 440.438555, 426.125310, 424.251750, 427.621433, 443.233214, 440.530839, 437.118662, 421.404361, 427.669468, 436.591914, 444.431341, 447.454621, 443.544299, 436.484245, 446.438377, 435.559910, 443.585486, 444.443142, 449.414992, 448.477056, 437.532097, 431.703739, 440.595267, 442.994564, 452.184283, 454.439435, 453.142168, 450.989821, 449.414929, 433.711740, 424.149991, 423.469531, 435.159724, 448.442833, 448.653804, 444.580613, 449.415149, 444.423950, 446.620169, 449.581065, 456.259243, 452.365180, 463.917500, 448.770858, 440.884747, 435.982373, 441.290920, 440.393735, 438.602602, 434.091917, 451.384217, 442.555973, 446.795427, 447.678392, 452.817664, 454.176506, 471.803612, 453.915888, 442.329324, 442.000121, 445.773152, 444.121351, 447.920303, 444.673494, 457.535631, 462.655345, 477.931688, 473.859127, 479.589495, 464.803814, 468.995120, 456.346473, 444.219600, 439.684610, 437.850365, 440.119959, 454.727392, 452.209902, 443.088572, 427.363596, 435.688461, 435.113923, 454.921689, 459.405062, 440.130190, 432.030393, 437.078355, 436.624427, 451.549138, 459.589929, 463.877671, 454.358137, 501.751753, 606.507414, 733.458060, 779.826358, 724.580066, 526.636059, 333.068224, 240.099235, 277.634225, 329.980975, 396.302967, 437.101763, 455.100913, 457.678322, 470.195948, 448.647946, 438.745363, 439.950928, 470.145739, 465.492085, 454.055618, 440.053284, 455.720537, 451.384224, 477.464180, 485.218754, 475.436666, 465.118103, 467.545164, 465.617972, 478.604462, 482.564520, 492.113620, 484.336368, 478.288556, 487.680706, 497.207461, 501.378045, 513.374871, 497.494536, 510.986521, 510.692264, 524.688059, 528.069145, 536.615470, 521.213865, 520.093103, 514.462435, 510.189434, 493.899692, 505.536497, 494.698152, 492.725875, 481.746281, 480.025679, 449.762156, 452.205775, 438.778813, 446.578590, 434.629421, 443.625151, 432.010788, 435.174571, 428.305406, 432.031844, 427.411575, 430.743479, 423.851489, 437.509793, 433.887436, 433.198655, 431.390504, 439.136275, 430.293985, 443.483123, 437.077113, 438.939649, 435.480082, 441.601673, 439.044255, 444.881811, 431.344845, 445.621773, 443.349269, 450.873615, 445.882661, 453.643990, 440.941890, 442.813866, 448.199093, 454.760271, 445.666436, 454.627807, 448.490943, 445.023387, 439.297043, 449.285439, 432.998626, 442.443768, 445.595093, 456.789635, 449.941908, 450.013228, 438.376017, 438.145628, 436.455557, 460.736176, 443.566059, 447.334639, 439.545205, 440.649302, 444.233532, 455.303414, 441.064769, 441.813096, 434.599139, 447.997301, 445.728473, 462.262613, 445.000587, 457.415641, 448.164052, 459.950129, 460.822791, 478.664760, 476.998908, 485.706311, 465.399963, 457.974346, 440.962314, 448.251204, 443.917139, 447.657430, 438.972430, 444.262188, 435.342287, 447.018038, 434.177018, 445.484060, 441.419751, 454.233617, 450.922443, 452.841436, 430.737803, 431.260439, 423.654348, 450.505059, 450.851525, 465.803399, 483.782288, 569.880532, 682.418152, 790.370966, 745.557358, 579.512145, 371.294213, 244.404774, 237.009422, 338.931279, 400.558934, 433.440416, 441.964849, 448.500290, 445.457311, 462.244354, 448.135621, 451.307455, 449.290016, 460.878733, 457.237694, 460.146605, 474.299255, 471.676668, 455.089619, 481.583519, 466.594276, 495.141299, 488.657690, 483.081658, 470.137848, 474.806979, 486.038883, 492.141872, 479.789005, 499.109212, 498.399903, 513.414433, 510.374007, 510.297377, 500.904416, 516.757201, 526.753385, 534.406618, 515.657276, 526.235328, 514.863033, 526.283441, 516.680000, 520.074896, 504.722136, 505.647374, 495.917705, 485.591496, 461.413887, 462.166828, 451.267784, 462.114668, 452.050620, 452.530724, 439.618264, 438.922544, 435.733044, 442.504632, 429.890065, 428.200254, 416.512797, 425.956889, 424.061369, 440.021476, 427.378938, 426.872138, 421.176651, 436.347787, 435.258328, 440.336628, 430.328620, 438.051837, 436.050298, 443.510601, 434.612137, 436.949645, 434.680875, 450.592624, 448.065836, 438.836983, 439.158627, 441.783901, 443.626251, 456.523725, 436.603829, 443.256280, 444.121227, 445.862675, 447.228834, 448.126872, 456.315741, 460.771158, 460.269377, 443.440616, 424.997576, 430.244284, 432.890575, 453.161158, 444.068583, 449.359311, 444.109659, 444.171675, 441.597627, 442.269988, 446.777879, 456.288794, 450.799261, 459.178379, 449.633154, 454.301515, 452.958775, 450.295032, 428.395551, 429.010588, 431.323690, 443.797055, 451.872053, 459.270946, 452.017646, 457.788859, 446.013970, 454.025331, 452.018656, 468.276789, 463.901101, 485.319159, 478.208485, 477.165878, 464.666757, 457.291869, 435.463000, 436.279666, 436.404071, 446.147307, 430.736380, 437.398439, 439.103059, 436.108404, 437.093820, 453.309012, 442.653004, 445.366069, 446.674151, 454.854234, 432.909792, 451.033928, 452.601638, 449.971348, 434.792712, 468.119514, 536.894667, 644.709173, 766.357081, 774.519869, 638.421651, 451.219133, 275.803956, 235.043981, 293.927475, 398.720217, 465.420209, 485.458610, 457.120426, 450.444949, 432.473833, 430.547123, 437.783123, 456.579682, 461.109159, 460.166066, 448.860222, 454.215135, 451.284571, 462.283690, 465.489580, 469.321783, 456.775151, 480.989276, 480.966675, 482.755793, 484.237167, 494.472736, 477.657427, 482.292124, 469.309673, 478.981499, 477.891845, 496.674829, 498.716693, 500.765655, 501.873052, 511.673974, 506.341296, 509.021531, 511.624816, 527.138897, 533.253302, 515.843791, 507.989531, 490.039188, 492.686973, 513.193009, 496.671437, 471.486007, 438.981102, 429.888568, 440.309547, 448.723056, 446.497366, 446.634326, 432.562054, 432.083676, 429.539279, 434.079432, 428.179239, 443.913178, 454.290657, 447.908104, 431.050120, 442.474065, 433.789215, 431.935714, 429.207768, 425.851375, 416.934649, 434.189304, 443.811278, 448.902380, 427.522342, 438.923821, 435.096488, 439.271845, 440.299246, 450.574272, 445.320481, 454.472573, 455.015620, 442.647210, 434.716562, 441.014182, 442.461315, 454.581695, 453.467058, 445.540582, 443.484678, 441.625262, 431.691849, 440.930546, 444.997387, 450.764180, 444.448565, 446.331784, 438.971533, 445.727038, 457.736400, 453.120832, 442.434633, 439.055932, 432.503255, 445.811037, 445.464249, 450.211765, 446.644570, 443.934740, 439.189707, 443.697662, 445.009691, 452.930308, 451.781105, 460.153656, 454.411435, 460.062834, 468.438401, 456.421015, 445.642636, 440.378200, 426.369762, 439.568798, 440.500895, 449.694456, 448.764484, 452.885501, 451.817762, 463.627473, 464.762299, 481.835307, 486.489918, 487.653392, 471.423282, 463.976753, 461.505720, 458.207741, 453.707510, 448.849031, 428.957353, 428.808653, 428.472587, 433.845874, 436.032722, 446.177872, 449.492222, 448.108370, 439.987011, 440.325589, 444.494242, 456.470348, 457.095719, 454.567681, 440.213993, 439.484124, 464.599223, 541.455130, 651.446956, 763.531924, 773.656952, 642.630798, 448.085403, 269.989884, 229.321448, 304.656526, 397.131978, 452.396405, 451.538089, 443.863539, 448.687724, 456.570542, 448.166753, 438.274022, 429.922846, 443.645289, 470.017429, 471.615041, 462.036141, 455.008262, 446.893810, 456.416996, 464.210380, 468.174028, 478.636992, 475.158611, 474.571684, 479.634055, 473.160372, 476.410166, 497.163166, 489.731196, 496.465064, 490.932412, 483.942132, 489.593507, 495.629490, 506.707220, 510.803514, 512.138340, 515.773086, 507.902178, 528.628110, 521.133939, 511.999327, 514.789739, 499.342998, 498.291296, 502.338340, 487.652641, 462.968771, 454.353644, 450.716331, 448.706123, 442.628485, 440.158040, 432.971793, 427.055343, 437.505029, 438.657259, 433.922183, 433.694349, 436.756495, 435.901596, 440.457558, 440.540411, 432.424702, 416.992545, 419.617202, 425.486189, 442.383936, 446.032113, 433.611276, 427.446801, 429.352867, 437.077784, 447.766388, 439.395462, 429.991235, 428.128047, 439.404198, 448.357417, 451.027681, 432.140790, 438.717928, 432.382410, 440.366885, 452.068774, 442.695708, 427.505477, 436.125572, 435.897143, 447.129698, 442.716368, 440.579583, 437.662340, 450.705332, 453.955290, 451.050594, 440.441319, 445.123991, 452.136980, 469.788742, 449.316078, 436.200377, 423.194934, 440.909995, 439.329382, 447.883968, 450.114983, 442.409250, 442.462273, 453.217745, 430.950351, 440.228206, 456.632392, 472.254833, 462.803054, 456.333732, 435.729940, 438.001131, 438.777608, 447.745118, 442.667981, 444.423610, 448.933952, 454.490146, 449.418701, 460.522795, 457.267306, 464.516916, 456.015432, 454.420956, 447.723979, 463.621974, 462.521050, 467.401945, 473.243890, 479.454853, 476.982334, 473.857016, 467.800901, 459.618866, 453.401820, 458.147044, 441.413952, 440.831405, 445.746423, 452.438043, 448.118506, 449.072190, 444.992799, 449.588844, 443.910949, 448.643236, 434.183857, 447.154205, 440.702113, 453.100347, 447.454982, 451.511787, 449.317473, 485.080961, 568.005793, 696.063058, 784.552956, 783.093957, 618.019308, 417.430633, 264.273988, 254.356981, 315.556259, 408.568615, 443.513215, 462.748948, 447.480702, 455.744983, 443.507151, 437.886583, 438.471357, 454.419888, 451.634580, 459.273526, 460.128078, 468.087385, 464.276037, 475.451032, 459.131031, 469.145642, 473.653915, 485.097811, 481.383442, 477.831867, 472.723077, 473.059525, 468.074593, 481.225409, 482.163173, 494.320158, 485.627970, 498.291330, 497.487305, 515.954474, 521.547015, 533.924046, 520.224622, 515.092608, 514.223615, 524.972161, 508.100871, 524.906313, 511.787987, 500.243697, 486.140679, 497.606257, 481.066114, 476.513911, 468.647581, 448.422730, 441.656169, 457.559437, 447.082670, 448.556514, 442.080307, 443.219272, 447.899269, 452.112322, 421.945923, 418.459143, 416.401176, 432.043203, 440.054114, 450.411077, 435.679027, 441.139649, 444.419249, 457.346198, 451.621067, 452.087757, 449.234839, 448.597474, 446.973146, 450.564919, 442.795293, 453.446278, 439.417569, 450.359390, 440.428860, 451.011577, 472.624307, 492.461333, 471.461920, 442.185181, 398.272637, 412.097301, 449.210078, 491.631134, 477.051235, 436.694882, 416.979146, 467.855186, 494.664626, 515.785229, 459.045641, 442.321848, 460.867214, 500.874179, 505.609259, 442.588118, 379.521515, 395.310572, 421.728455, 466.428048, 447.667411, 426.177145, 432.246487, 465.910532, 493.590025, 483.253438, 437.744661, 441.399140, 440.841813, 467.052448, 456.544095, 437.474072, 419.211796, 431.939427, 459.770952, 461.779679, 461.623911, 461.308285, 426.494949, 436.837311, 433.963684, 449.763194, 462.930960, 492.886172, 468.859021, 466.239445, 456.662507, 468.814695, 480.468271, 482.009098, 480.822908, 469.223174, 438.351162, 456.552167, 464.152711, 461.608771, 466.497552, 449.332333, 416.876757, 443.606912, 456.544982, 456.563904, 428.400679, 420.189958, 435.149408, 458.071082, 470.900523, 490.731179, 443.401030, 429.312037, 416.939438, 475.891764, 586.137619, 780.570785, 879.256630, 737.369018, 520.029599, 303.243516, 205.820691, 287.605006, 389.389674, 438.104467, 433.141158, 448.574073, 437.767884, 442.442360, 459.730424, 496.737768, 516.474902, 508.008424, 461.551373, 439.188796, 432.203856, 476.795562, 504.293924, 492.925436, 471.875733, 466.738898, 461.401067, 486.146302, 503.734858, 529.452484, 506.870520, 490.460781, 463.623727, 464.087505, 484.934426, 511.952988, 494.315098, 499.345865, 502.747054, 531.100534, 544.781406, 549.614263, 527.171157, 534.603168, 528.347128, 537.156759, 503.686531, 492.185860, 476.726139, 497.300662, 500.395119, 505.435502, 494.986326, 487.568838, 468.075316, 460.705497, 438.487343, 433.736500, 440.244302, 455.094628, 432.820394, 426.822902, 413.218999, 426.477202, 425.739642, 444.045862, 442.201191, 431.559864, 431.052799, 447.754426, 427.413936, 444.960775, 443.465257, 445.342331, 436.263931, 442.291601, 425.417060, 434.173742, 422.499585, 435.232941, 438.949298, 451.505187, 452.297103, 468.605114, 453.678229, 451.429996, 435.220979, 443.405304, 441.900601, 450.862074, 450.059015, 458.801143, 437.806749, 452.565421, 445.576619, 444.078463, 430.738940, 451.226954, 439.269031, 446.552530, 449.405309, 459.554982, 444.202399, 455.467795, 442.967113, 450.370861, 442.005181, 456.923355, 434.971630, 436.665847, 437.008179, 461.834030, 447.142006, 449.611036, 438.504359, 443.958350, 448.103394, 473.498892, 451.008831, 436.976436, 434.155192, 436.649980, 448.434515, 454.594100, 451.166623, 446.307891, 433.114042, 458.637064, 459.638236, 458.565640, 446.663472, 467.098246, 466.898061, 489.347164, 465.745126, 450.126769, 422.357450, 439.447079, 467.818488, 478.962804, 458.726941, 464.613194, 444.980440, 447.849440, 439.105005, 455.629024, 446.953769, 447.964068, 443.913912, 428.362994, 421.218047, 435.391858, 445.717619, 446.771334, 430.221933, 432.144309, 428.002947, 442.863184, 450.585441, 475.203773, 445.014830, 449.654532, 494.210495, 596.562191, 732.708961, 796.143800, 675.264540, 481.228000, 278.825982, 214.322365, 281.059634, 388.200646, 432.043720, 460.210612, 442.887229, 453.429716, 454.135608, 444.896351, 431.885006, 436.787533, 442.064853, 456.543786, 450.989601, 461.082537, 459.982018, 485.357604, 466.986322, 455.114356, 447.135746, 459.515566, 461.626620, 488.744902, 469.740450, 479.102579, 485.760354, 489.949962, 486.858547, 478.081813, 469.427756, 495.820788, 498.342038, 508.320240, 490.879369, 487.515106, 498.852895, 524.654747, 528.517211, 516.182639, 493.955312, 495.964611, 489.776481, 519.904732, 510.250087, 485.211531, 460.986770, 459.680022, 440.506459, 455.426783, 458.257664, 454.461914, 432.749646, 438.655327, 428.425569, 428.223487, 424.274571, 443.893106, 432.081587, 430.006999, 436.577155, 443.058346, 425.676313, 429.928344, 430.224121, 426.015973, 429.665090, 451.120533, 440.696661, 433.655104, 423.665913, 434.654840, 420.251837, 439.959313, 442.562996, 447.483275, 443.857817, 446.041569, 446.530954, 456.436957, 448.213241, 446.109419, 434.971929, 435.292658, 440.848660, 455.376115, 440.384898, 436.871989, 424.274171, 445.964290, 441.214465, 451.122015, 439.121418, 449.852664, 450.729843, 474.132298, 472.233004, 468.898816, 435.974929, 434.075574, 425.669357, 436.925165, 451.802435, 457.109505, 442.643504, 443.818091, 439.958649, 458.283972, 444.419992, 452.598486, 445.196443, 458.514106, 455.207392, 466.398628, 453.359547, 460.644428, 455.103499, 459.367604, 435.406752, 432.563024, 437.101914, 452.552615, 451.377716, 451.307609, 441.147394, 451.821763, 453.324963, 473.100743, 464.206432, 475.877956, 477.250652, 480.286791, 480.314948, 456.365277, 455.080736, 439.192915, 425.578693, 428.025641, 417.689536, 420.972436, 429.127522, 437.837336, 437.960833, 441.500728, 439.046557, 443.072083, 452.855646, 458.372641, 442.317717, 433.241226, 432.454177, 461.009075, 462.800732, 457.945891, 472.947737, 548.835296, 680.267905, 809.687613, 793.581996, 639.464424, 441.475662, 298.705693, 265.578630, 337.826508, 411.241908, 458.891811, 463.066322, 459.203624, 447.500245, 434.807632, 449.045632, 450.161134, 444.314208, 454.799636, 451.395606, 458.395307, 469.851680, 470.177547, 459.914299, 454.541317, 460.334651, 468.407607, 470.373576, 480.991069, 478.984654, 482.271433, 482.569653, 478.769386, 461.978415, 467.943871, 477.360089, 488.510658, 492.418970, 492.957579, 495.684906, 506.552830, 513.320262, 516.054056, 518.578428, 530.133895, 515.598489, 510.952421, 507.174033, 502.640672, 507.072568, 509.102857, 480.695777, 459.831256, 461.483264, 469.510012, 453.426975, 441.947471, 432.537654, 435.697987, 437.652576, 435.665500, 435.978863, 433.843700, 440.580048, 456.885870, 438.669463, 418.049134, 422.259103, 430.420505, 423.659073, 418.667122, 428.537114, 425.687236, 441.201347, 447.556093, 437.067701, 422.523633, 424.715545, 436.184440, 443.389212, 445.182719, 443.669825, 431.524603, 433.065559, 433.540889, 427.429742, 432.760962, 439.836134, 446.451974, 455.124104, 456.902650, 452.719919, 455.133702, 474.583370, 464.432262, 453.025782, 449.452276, 437.384169, 446.114295, 449.255079, 448.002295, 446.992095, 444.035418, 444.925987, 428.947904, 436.953658, 440.870170, 438.383972, 433.671571, 445.065652, 455.292597, 464.672341, 471.331642, 449.442202, 431.406319, 458.537629, 467.491246, 459.444848, 439.026311, 438.554490, 440.944261, 452.509891, 464.728401, 460.330029, 456.799057, 464.937480, 467.638559, 466.695031, 475.797107, 501.744193, 503.035395, 487.787743, 477.752041, 468.654501, 468.911248, 470.985545, 471.947673, 477.239183, 488.651411, 500.710324, 492.351765, 477.144739, 469.946933, 472.191659, 465.570476, 461.308833, 450.965863, 439.299201, 422.570222, 428.058334, 428.708849, 443.528601, 447.282215, 457.034777, 445.403419, 444.158605, 433.248605, 444.970169, 450.783583, 472.519803, 493.443097, 468.401555, 496.153636, 599.266176, 724.325712, 799.442553, 707.223870, 501.535847, 300.096883, 219.708485, 276.795387, 369.930988, 417.039410, 447.429495, 457.426797, 448.323485, 446.809755, 446.706475, 423.213597, 442.563343, 463.567295, 461.809067, 463.760916, 458.203081, 460.899457, 468.402944, 464.349989, 482.339747, 460.583827, 475.625353, 486.220777, 479.625563, 486.289996, 469.993003, 467.856553, 474.429618, 470.335877, 488.189184, 479.163710, 496.078782, 496.587484, 498.819726, 502.485480, 500.081200, 513.529546, 528.229654, 499.457423, 506.255755, 513.467018, 524.435553, 528.770664, 535.735591, 487.772092, 478.182036, 477.939990, 472.861685, 452.077749, 453.082966, 440.167190, 440.026783, 450.350239, 458.775266, 444.330185, 435.531682, 426.838157, 423.042383, 433.094192, 456.499713, 441.919360, 448.853261, 423.080139, 424.878930, 422.937346, 431.326311, 420.007513, 435.505638, 441.094269, 437.648011, 440.755290, 443.191812, 433.439211, 437.990061, 427.327240, 433.794521, 427.940345, 448.460354, 440.757618, 420.241773, 406.583500, 412.098671, 418.024550, 441.518590, 428.433001, 438.904756, 434.025933, 448.630720, 431.613529, 431.875356, 421.637624, 434.574171, 446.221588, 462.022502, 439.817538, 451.332205, 447.222791, 446.360517, 435.689649, 445.902824, 443.402322, 455.866963, 454.546545, 460.345424, 445.418727, 455.438062, 455.739006, 450.808740, 446.954510, 455.882556, 455.507667, 466.520317, 461.886710, 463.949881, 464.827709, 470.734463, 452.401772, 468.404668, 463.355785, 470.643613, 464.975924, 468.120417, 443.524922, 451.288930, 452.210415, 455.154667, 436.764567, 440.508923, 430.578564, 440.768553, 439.758936, 454.957137, 440.192480, 440.370204, 436.625339, 438.194767, 428.703545, 435.393623, 435.920740, 459.829247, 449.392611, 475.155706, 529.461708, 649.647662, 759.422481, 778.746330, 627.025194, 418.690456, 238.152368, 228.000085, 300.053701, 407.230950, 450.379539, 470.562679, 448.493567, 446.669932, 434.404060, 434.025325, 447.833544, 462.385750, 452.892153, 459.074522, 449.323372, 465.600458, 482.600468, 477.595376, 444.275397, 449.318431, 450.082908, 468.685389, 471.317014, 490.359520, 474.504866, 471.579824, 470.492218, 473.465833, 466.633882, 493.525870, 504.181636, 505.431071, 502.995007, 521.665185, 501.893856, 514.192918, 507.106152, 509.976700, 500.032170, 512.849179, 503.681340, 510.301472, 501.744160, 499.598127, 474.713866, 487.426466, 485.909534, 482.642498, 466.424253, 444.184114, 418.246088, 432.095135, 440.111589, 443.525183, 435.477924, 438.941026, 428.998423, 440.524235, 430.455371, 436.056314, 422.154722, 425.339999, 425.181509, 438.263339, 430.522616, 442.154010, 427.742805, 435.388749, 437.016359, 457.123544, 448.196847, 435.295005, 417.627493, 434.366287, 434.491912, 453.882142, 444.467394, 433.967311, 432.469042, 451.077845, 439.720538, 443.986469, 438.947389, 442.837352, 445.531957, 452.447316, 445.848210, 454.167249, 453.889800, 456.302774, 433.288466, 430.165154, 435.569930, 447.397416, 445.588203, 447.046198, 440.179863, 445.461456, 445.179278, 451.122239, 438.286811, 446.159996, 449.455186, 458.727138, 438.576448, 443.190827, 448.618438, 458.096328, 454.975402, 457.416175, 433.610742, 443.248232, 450.664297, 469.949179, 461.150419, 472.937445, 454.994329, 465.154637, 456.854548, 468.706090, 454.340566, 459.545697, 449.392606, 447.031577, 433.959354, 431.605118, 421.602069, 433.518514, 429.911195, 435.600179, 423.520986, 435.057401, 432.073860, 442.467466, 443.332431, 449.882929, 450.232593, 456.819806, 444.251640, 499.500340, 597.201266, 743.080705, 794.410800, 703.502846, 506.919301, 307.696929, 221.789914, 278.350599, 351.486923, 422.345593, 448.217876, 456.198353, 445.129022, 450.054558, 442.438783, 453.838891, 462.106861, 463.189981, 459.211492, 446.782075, 447.618406, 470.320216, 470.400180, 466.433369, 443.723988, 463.012946, 466.026879, 485.300923, 495.318801, 474.643417, 460.273536, 473.155496, 485.155152, 506.279366, 493.437298, 505.091278, 481.905956, 489.678380, 493.853953, 506.473288, 500.248384, 511.387253, 514.812388, 519.803544, 513.946987, 526.895669, 512.477584, 504.562468, 499.920709, 508.786100, 501.837804, 525.078849, 492.276635, 477.834468, 438.694372, 439.467606, 438.297827, 438.032366, 440.692485, 427.637328, 420.388368, 437.556979, 436.407916, 444.345875, 422.961596, 429.692725, 435.470264, 446.288689, 455.313300, 454.743589, 437.686632, 443.180474, 442.511625, 438.961594, 421.126431, 428.813008, 428.347975, 435.504936, 442.126667, 443.080098, 440.380089, 452.429648, 447.200776, 448.971054, 438.065857, 449.707906, 445.871807, 464.544022, 453.950162, 446.260431, 443.481790, 439.889719, 430.840676, 437.994490, 444.049494, 441.094570, 446.900172, 452.836383, 444.239891, 448.215641, 445.609718, 451.746986, 451.467419, 452.275653, 451.605905, 447.714836, 449.103391, 449.282034, 448.451088, 452.730234, 441.707481, 445.254347, 443.416674, 438.752742, 442.205408, 450.263230, 464.372652, 460.677199, 456.919591, 467.448798, 459.835089, 470.332736, 481.447609, 492.002482, 488.152221, 486.523289, 461.430976, 437.104400, 423.755400, 433.108178, 436.311106, 433.831772, 432.370803, 444.095378, 449.172165, 451.075203, 444.105933, 444.703510, 444.732564, 452.509222, 444.381192, 443.351382, 441.482431, 462.646752, 448.738277, 460.558719, 522.907095, 657.978721, 772.611589, 796.777036, 658.694323, 445.156894, 281.165152, 246.212080, 300.836047, 396.145758, 452.261599, 465.716417, 449.588401, 441.271421, 437.565197, 446.807249, 446.319883, 450.134409, 452.723030, 456.819025, 455.324451, 464.403982, 458.532844, 467.142462, 476.694616, 482.570529, 474.013411, 469.453418, 479.314806, 477.761518, 466.349065, 460.831000, 461.969429, 477.703611, 487.745235, 495.709012, 484.502222, 482.853898, 505.277857, 518.676215, 519.936879, 512.646343, 507.819208, 506.209481, 507.493323, 522.749842, 528.083898, 521.453443, 512.483249, 496.225672, 487.780509, 472.146748, 471.133333, 454.507651, 452.783915, 452.726832, 456.438787, 447.228440, 439.243278, 449.559240, 447.110821, 424.956535, 412.563923, 395.200766, 425.665620, 455.964558, 466.259531, 446.576245, 423.613198, 423.124043, 424.744442, 430.003491, 436.658723, 431.960198, 441.163428, 438.067709, 426.820918, 432.832517, 453.339837, 463.407761, 459.410739, 450.156380, 442.866581, 441.510701, 443.883679, 441.572739, 429.291405, 442.592501, 469.639596, 456.007945, 442.307235, 442.598952, 436.865618, 447.619130, 451.858235, 440.301689, 438.491754, 441.671867, 463.119254, 459.430002, 450.271395, 450.415420, 448.368031, 444.774546, 452.938502, 452.009847, 444.818551, 442.223873, 442.363301, 448.528123, 462.498999, 454.730004, 453.622303, 448.006199, 450.235197, 468.254387, 480.968856, 468.499653, 469.724500, 464.715080, 467.719296, 456.119915, 453.672887, 447.973568, 456.112507, 458.025083, 462.923195, 439.864030, 432.206191, 431.373982, 446.524401, 453.250129, 463.848194, 458.266347, 438.718841, 424.079799, 428.726502, 438.699677, 452.862597, 456.412036, 458.468780, 490.561661, 583.316878, 713.404648, 797.750082, 747.660864, 610.348921, 402.267648, 264.377459, 239.785704, 314.066352, 382.196411, 446.333752, 462.774367, 444.396673, 441.303906, 447.774866, 459.574276, 467.111617, 472.575654, 478.985976, 465.267756, 476.888381, 481.867400, 475.305532, 466.048330, 469.396109, 458.954871, 474.033611, 476.147966, 495.387177, 489.623872, 491.346489, 488.737823, 489.771934, 485.769298, 503.236941, 503.838208, 502.657794, 509.467678, 524.502215, 523.272462, 525.329722, 516.988821, 521.794748, 525.693910, 538.173031, 531.733261, 527.722754, 509.679259, 516.552289, 511.108951, 497.977716, 484.872689, 477.696271, 461.388957, 475.430102, 462.107784, 459.622987, 456.618383, 449.176421, 449.463585, 459.127527, 443.603551, 443.515631, 434.227649, 446.838141, 440.992662, 435.866093, 426.780968, 423.318516, 430.411955, 455.653530, 459.456522, 446.179723, 436.595888, 453.207606, 457.435630, 474.169161, 469.452651, 463.691359, 448.726765, 454.220146, 453.040875, 460.074143, 457.228369, 461.456642, 451.476467, 453.146647, 449.838518, 464.161871, 461.823516, 453.566343, 447.547165, 462.720437, 464.031869, 477.925810, 462.459277, 448.541406, 447.958196, 454.837408, 449.731611, 461.966659, 454.462004, 468.029159, 478.457958, 470.176008, 452.522713, 470.430941, 467.566357, 486.119015, 476.315185, 473.219180, 473.782862, 496.496382, 496.192242, 481.798818, 453.706629, 446.826759, 441.564994, 464.690778, 460.959784, 460.592733, 462.733495, 463.361862, 468.359553, 476.425078, 454.734221, 457.041949, 452.030432, 461.264852, 463.283558, 473.601735, 448.396508, 451.429998, 461.850720, 484.551997, 503.049390, 582.546569, 682.836996, 781.179039, 778.538615, 670.356063, 447.795048, 285.778735, 235.165187, 306.460886, 381.600739, 441.907571, 459.862965, 454.101672, 444.505034, 472.553628, 462.219849, 464.056859, 469.041934, 483.155166, 483.630624, 487.708248, 476.830887, 481.457078, 486.519140, 502.248731, 507.352524, 503.259539, 482.541888, 493.952001, 492.786112, 493.156243, 483.694011, 492.402273, 489.969666, 501.357497, 493.280313, 508.602430, 513.493094, 540.659248, 550.769336, 535.927696, 521.880327, 531.559752, 531.595445, 545.951646, 536.779760, 538.471178, 536.998619, 535.224218, 520.081453, 505.926226, 489.951673, 501.092634, 482.940245, 474.721845, 460.196600, 456.609291, 453.684330, 462.947179, 442.372273, 441.565364, 438.669601, 445.898658, 445.163146, 447.615485, 435.142749, 443.929814, 434.410965, 448.436498, 448.163925, 444.300412, 434.153313, 440.857370, 430.607699, 453.076926, 453.585582, 442.920780, 438.231834, 443.114546, 446.971677, 469.856375, 469.775336, 459.124184, 447.547829, 449.981679, 457.044152, 476.793969, 466.454332, 469.568462, 443.956852, 443.923935, 450.714674, 446.718880, 435.541783, 440.527561, 435.259197, 458.296336, 464.896276, 470.860341, 452.977659, 460.942237, 461.129361, 472.357877, 464.774608, 462.178456, 442.312715, 448.499465, 449.608339, 459.569104, 453.457666, 456.636675, 454.495999, 464.882130, 462.521013, 473.852024, 471.499875, 478.203600, 481.432738, 484.887910, 455.685706, 447.949768, 431.142910, 437.197067, 435.077039, 443.758275, 443.662897, 454.101532, 443.621970, 448.292579, 445.087277, 448.007075, 446.185143, 454.027911, 448.586058, 460.597666, 468.571822, 471.094241, 437.365779, 485.940586, 591.578770, 735.232271, 798.609851, 712.465957, 510.058978, 313.876191, 227.413907, 292.829937, 373.980586, 452.330649, 469.737156, 462.714586, 432.461079, 443.976204, 445.387094, 449.634517, 447.760548, 453.435323, 453.049023, 460.809603, 460.230140, 458.654104, 449.357767, 471.131164, 483.223585, 505.889829, 482.998003, 455.216383, 438.991311, 447.620836, 471.808005, 496.525684, 495.587434, 483.412095, 478.853495, 489.503825, 487.821942, 497.776410, 489.444741, 507.709479, 522.277444, 520.059338, 530.084002, 515.911854, 495.397575, 509.363846, 502.343897, 505.141585, 508.635517, 502.528034, 476.702762, 464.681568, 458.621508, 461.165756, 455.387233, 457.996315, 443.298061, 441.765702, 429.271253, 430.607433, 414.975342, 428.834344, 445.873950, 452.942109, 432.276911, 430.045803, 419.471801, 427.199681, 439.975252, 435.341319, 418.296429, 428.292797, 419.779784, 426.948959, 428.750738, 443.871561, 437.130122, 444.310514, 426.585611, 428.439827, 428.065915, 456.934317, 451.974244, 450.520236, 448.213708, 435.226715, 428.463403, 437.811013, 436.892232, 444.360505, 455.820918, 457.281146, 437.300477, 437.224939, 425.826395, 437.170610, 440.732058, 460.474427, 451.067568, 446.898312, 442.753769, 444.654308, 437.798957, 451.915816, 439.301554, 438.352459, 443.893541, 445.563599, 442.683095, 448.327634, 439.887582, 445.966145, 443.481526, 452.574870, 447.119483, 442.017215, 440.393751, 452.295756, 454.903211, 474.443480, 456.048752, 442.805477, 438.709073, 457.920707, 463.841405, 466.404795, 447.303513, 438.200929, 446.828515, 472.265378, 475.809306, 465.204188, 467.718172, 482.369975, 481.664297, 491.039892, 466.960953, 446.531791, 429.486218, 435.949211, 428.919999, 427.484596, 435.880059, 452.190823, 448.070571, 438.009544, 428.248400, 429.915024, 450.164038, 475.047313, 466.667784, 449.076680, 423.298399, 442.749989, 449.878614, 455.425839, 470.868456, 554.445708, 681.388068, 777.584549, 769.420329, 617.527711, 412.644791, 283.181583, 265.464073, 325.309019, 395.220260, 452.993195, 463.316224, 459.901511, 439.928528, 436.031253, 434.026549, 447.169745, 447.848637, 451.542352, 452.406013, 459.779584, 478.252561, 474.915830, 454.130897, 453.323671, 464.483957, 476.539221, 476.866982, 477.469201, 460.843518, 461.661786, 478.363863, 483.070423, 476.522708, 477.316655, 474.490171, 477.204415, 499.597722, 517.329866, 520.215593, 514.119294, 502.064480, 505.408748, 509.567358, 529.119326, 527.881616, 512.269837, 507.594993, 498.438780, 494.994385, 486.749928, 471.358767, 465.156433, 463.333737, 461.858257, 464.941025, 459.181149, 447.800214, 448.753222, 444.460125, 445.308447, 440.257638, 441.660375, 435.065673, 436.317662, 437.550816, 432.771536, 421.907794, 418.064861, 419.546415, 438.170619, 449.092167, 447.530659, 440.175132, 424.815680, 431.646203, 444.808081, 454.452786, 455.578030, 443.513865, 423.043217, 424.468909, 428.313213, 429.581664, 445.361126, 440.349750, 431.930132, 431.722137, 433.809298, 430.213329, 440.428220, 451.834945, 453.344706, 440.137902, 452.884981, 436.863971, 442.868250, 457.160019, 441.405166, 434.788365, 431.289357, 432.293213, 440.046614, 442.589266, 441.593319, 440.571662, 440.776751, 448.210833, 450.859555, 444.078460, 454.478838, 462.542304, 457.225182, 457.944447, 440.013245, 429.443408, 423.813888, 429.307505, 448.291546, 442.793203, 447.662690, 454.256046, 440.338136, 450.549723, 453.682596, 447.774572, 438.302379, 450.793062, 467.675771, 460.716492, 459.412344, 443.732304, 427.405784, 431.819445, 449.890092, 454.669864, 444.686000, 450.756985, 444.869853, 434.938709, 435.445551, 463.207670, 456.355636, 471.831114, 452.742750, 424.924388, 423.238856, 434.535962, 448.718615, 449.785498, 436.366579, 440.102971, 448.518443, 456.814028, 457.616660, 452.439156, 451.232438, 471.167283, 464.931396, 451.329896, 429.892811, 424.109228, 445.290732, 474.470863, 480.525132, 468.974841, 458.644805, 452.507057, 448.220595, 451.127567, 438.848706, 450.078786, 455.182189, 456.910549, 448.647320, 427.872943, 412.699875, 431.592239, 436.743361, 429.681876, 424.044542, 433.303032, 441.927512, 453.466941, 445.331295, 449.979111, 434.205087, 457.400136, 458.418358, 446.340343, 496.857029, 626.863349, 755.898287, 787.916445, 680.389701, 485.394855, 297.205502, 259.127566, 304.379808, 370.584927, 427.803765, 454.407471, 456.273878, 448.939792, 431.377656, 434.345540, 432.228218, 441.742490, 444.940134, 434.810671, 439.069212, 467.957306, 477.799703, 486.010363, 470.393441, 463.210346, 442.405000, 463.468955, 460.761118, 467.853532, 481.134962, 479.921953, 456.897173, 455.106598, 452.131806, 458.148518, 471.804408, 495.237748, 480.253424, 485.789593, 490.741904, 525.735628, 520.160141, 539.194313, 513.082548, 502.437019, 508.498726, 517.327533, 509.108821, 470.576670, 449.101072, 461.764532, 480.842764, 488.749050, 483.107480, 461.770897, 453.981901, 482.789634, 492.966215, 458.457106, 419.963430, 395.589478, 380.312476, 414.986192, 422.127909, 423.874951, 406.780146, 433.796055, 460.913755, 467.997260, 485.819229, 440.782357, 408.011503, 415.791702, 416.581525, 430.384879, 423.432442, 423.555600, 392.897288, 415.536369, 454.491422, 481.180218, 489.327319, 444.448283, 419.725930, 410.439837, 428.265369, 457.263557, 437.780270, 409.372056, 412.058327, 448.672803, 466.288808, 470.633625, 448.115859, 434.621388, 443.777950, 452.699245, 426.991775, 414.223973, 396.596823, 424.817597, 452.449065, 462.952657, 426.859981, 436.682743, 493.501149, 513.079323, 495.424824, 475.916645, 381.417736, 381.226898, 424.903298, 426.528196, 423.686881, 442.845596, 437.730879, 445.557767, 449.923671, 455.411384, 463.271245, 512.052305, 456.754103, 409.270495, 392.939414, 420.393400, 477.695190, 487.167065, 457.307535, 428.868754, 446.071331, 516.628707, 509.161946, 472.268489, 429.984198, 418.446423, 388.508996, 399.280811, 423.328277, 475.438952, 492.540935, 518.546498, 497.838539, 466.582727, 467.581947, 486.360254, 431.143285, 394.446561, 396.042251, 434.146002, 442.800589, 475.753057, 474.390137, 472.912324, 492.320192, 535.857051, 482.134223, 456.882062, 446.178472, 443.976706, 453.808468, 497.417599, 479.838494, 454.111099, 459.942087, 469.246405, 456.793326, 481.697571, 461.001934, 417.884603, 387.635221, 413.148785, 427.317679, 446.098608, 436.130420, 415.429608, 414.012007, 473.257696, 522.279150, 520.799333, 452.953862, 399.481288, 391.345946, 421.781547, 438.748913, 475.555544, 536.844199, 649.347768, 773.782482, 802.670571, 650.466746, 469.233551, 296.310416, 246.077044, 284.979121, 361.284701, 399.577419, 430.761266, 429.094973, 450.738589, 450.941430, 432.225618, 432.358264, 444.367931, 470.976800, 521.429210, 515.064492, 453.455264, 406.520848, 396.890483, 416.249724, 471.626562, 476.649588, 472.901010, 438.748207, 455.609099, 477.591119, 498.774849, 502.297761, 496.994381, 472.614968, 473.056559, 475.644850, 505.075703, 477.941291, 468.623860, 459.612196, 479.812353, 509.704087, 537.658078, 527.100732, 512.915430, 503.981923, 531.514847, 529.034835, 520.007974, 489.865997, 464.547060, 449.290575, 456.801895, 456.526295, 461.946450, 453.645059, 441.220558, 415.236567, 429.669876, 432.784865, 450.417287, 463.330833, 448.477283, 415.381264, 425.684529, 419.102601, 415.064744, 417.205557, 427.294161, 420.689832, 448.233530, 449.229842, 442.338732, 430.000790, 437.017840, 427.663705, 432.652674, 420.721715, 429.701936, 423.900044, 437.861221, 433.414355, 424.710397, 418.383418, 440.539279, 436.668629, 434.416334, 443.450983, 455.415487, 445.252609, 468.948481, 451.206228, 458.529531, 456.202286, 486.091375, 456.475564, 425.259426, 423.815079, 440.340955, 437.866229, 439.181144, 425.536904, 450.109941, 457.925493, 497.830593, 491.781690, 427.973397, 412.321245, 428.474762, 416.766338, 435.853023, 455.973068, 474.991639, 460.424236, 447.057929, 427.090741, 446.921496, 456.422576, 496.145721, 485.096982, 432.671488, 426.291350, 444.679341, 429.460700, 422.767427, 426.611769, 441.999963, 449.507253, 470.025882, 461.184093, 448.128900, 448.292043, 475.572404, 473.101547, 452.826473, 435.584059, 434.715576, 431.707465, 452.765500, 466.965612, 464.754336, 444.447740, 451.711334, 450.011413, 458.838743, 445.681017, 444.600538, 442.467256, 469.960933, 481.531929, 486.483513, 450.348231, 434.064506, 442.851121, 465.385180, 472.918008, 474.187811, 454.292719, 449.183678, 441.563490, 461.539801, 471.474147, 495.598444, 481.619575, 481.439684, 465.143861, 473.317026, 467.230128, 482.142118, 457.277015, 454.192248, 455.303467, 449.646015, 424.065508, 429.397723, 430.575670, 460.602747, 449.808867, 454.435839, 443.751466, 455.400007, 452.760337, 462.967240, 443.650489, 452.400510, 471.006635, 470.532661, 489.288262, 568.225964, 698.434872, 814.297763, 778.857004, 610.950820, 404.802100, 265.947188, 249.615400, 332.104997, 384.870752, 436.787440, 458.745813, 468.475614, 460.540628, 444.018594, 447.249935, 459.792965, 460.912123, 477.054451, 458.934707, 460.440813, 452.249716, 458.749995, 462.495016, 470.315165, 478.862932, 489.441698, 479.653748, 481.887378, 480.963056, 495.791208, 492.291550, 493.434396, 472.562655, 475.507276, 480.503820, 499.332652, 514.470748, 513.070019, 500.553531, 502.285891, 515.384184, 527.572239, 533.747254, 547.402207, 534.030064, 531.728226, 529.291618, 515.104918, 499.292370, 505.028758, 497.199027, 489.931786, 480.262354, 477.964266, 465.287276, 457.313659, 454.189159, 458.221858, 458.272429, 469.421064, 444.355794, 430.781845, 413.907161, 433.129843, 442.944187, 443.891347, 438.095846, 437.101661, 422.954623, 420.941926, 428.929176, 446.929574, 453.220846, 480.322728, 434.627415, 429.271533, 428.495963, 451.305383, 464.431275, 450.937393, 423.575942, 425.999320, 441.486337, 469.890477, 469.385604, 468.381358, 448.796063, 447.198471, 440.983671, 451.353775, 462.258229, 470.978096, 464.490957, 440.786516, 422.760482, 436.373398, 452.986703, 456.515313, 456.275017, 453.578641, 455.438330, 475.305504, 464.892688, 450.876561, 436.709435, 441.823361, 452.772639, 459.647235, 451.649253, 447.659585, 443.026050, 449.301345, 469.210638, 473.433842, 467.617843, 455.154257, 438.520596, 457.932697, 464.333056, 474.283871, 456.863423, 432.238111, 439.849194, 467.437494, 465.560096, 466.768479, 448.890053, 444.052741, 456.800140, 471.192106, 471.387547, 474.406980, 467.508475, 471.226166, 459.564737, 453.850175, 461.327703, 465.396525, 463.882005, 473.027230, 480.740805, 484.856081, 486.855995, 475.999762, 458.293051, 465.337460, 467.820777, 463.211855, 449.819714, 432.265914, 430.739371, 445.311266, 458.571217, 467.983833, 460.159139, 453.903172, 443.168206, 448.993304, 463.345703, 469.336637, 465.389986, 458.118463, 455.550713, 460.608658, 509.878975, 623.528711, 722.304076, 801.412003, 734.882351, 556.628347, 353.610452, 256.293015, 279.139710, 347.871386, 419.964532, 446.842139, 452.966261, 468.586550, 475.178925, 463.836305, 456.495921, 458.880317, 475.094603, 473.282564, 467.987092, 467.647069, 480.291451, 491.361239, 478.066137, 471.660680, 473.913649, 479.314447, 491.819209, 488.690507, 475.665220, 470.338842, 485.712939, 496.589203, 488.961953, 497.525769, 515.388823, 520.319478, 531.165413, 528.867755, 504.427995, 488.918797, 506.794703, 518.315035, 537.183248, 541.431860, 533.636712, 516.842450, 516.731965, 531.854114, 543.732219, 538.489299, 537.943328, 501.112209, 468.267537, 461.356169, 430.611382, 431.090763, 438.436397, 435.556799, 447.578237, 446.695764, 438.347917, 425.148489, 431.785337, 445.919975, 453.018162, 454.079769, 437.242402, 413.876078, 424.434375, 420.182761, 422.943517, 421.775329, 427.637969, 431.216527, 445.798191, 436.870659, 429.776161, 438.938349, 455.605130, 455.371978, 449.091733, 434.191045, 438.100152, 449.368031, 460.845472, 452.964539, 437.052433, 429.786743, 436.212814, 437.408704, 442.362947, 446.412689, 454.202693, 445.785069, 447.117083, 451.963554, 451.641648, 459.368045, 451.560127, 429.201835, 421.237061, 424.331699, 436.001838, 442.038354, 443.694382, 444.665276, 458.689362, 459.590365, 459.844428, 453.152054, 435.691366, 432.153774, 438.728585, 431.444541, 441.857083, 433.093593, 442.597489, 449.200856, 447.856170, 440.686133, 440.831497, 439.249076, 447.294232, 457.967790, 457.800194, 437.708278, 451.865042, 451.658148, 454.710949, 453.009974, 445.489495, 433.201532, 437.494385, 444.791664, 464.394192, 473.933130, 484.770712, 458.683451, 452.094985, 449.321649, 459.917638, 475.057988, 468.279961, 427.201775, 421.230557, 422.841863, 433.616034, 437.895198, 442.134402, 419.479322, 426.537306, 437.154576, 447.376162, 444.078174, 439.088075, 432.938518, 448.132051, 457.695898, 473.878190, 514.089798, 605.980933, 706.665481, 788.181401, 705.038827, 513.742443, 309.832308, 223.147173, 252.651711, 349.232745, 424.603288, 448.055449, 448.290592, 450.023588, 435.783385, 426.520764, 423.062109, 462.293355, 470.268566, 465.573791, 439.151909, 429.819000, 435.717895, 467.597151, 470.111547, 472.102946, 451.337953, 455.152378, 461.980573, 466.571196, 476.865407, 483.779376, 456.200342, 458.755075, 457.744465, 472.851106, 489.367376, 495.387641, 485.412523, 492.531513, 492.943663, 512.394527, 517.559844, 521.825655, 515.055763, 519.816993, 491.249898, 487.667003, 489.467261, 487.731315, 486.853709, 498.977378, 481.727170, 469.218163, 447.838255, 455.665548, 451.417985, 478.392729, 462.512904, 439.577034, 404.382869, 397.461761, 422.856901, 432.445729, 414.822191, 417.747834, 414.511223, 421.908666, 414.215775, 425.628738, 423.926006, 442.603571, 466.121635, 448.415850, 406.599804, 410.307618, 411.927064, 447.210469, 423.304256, 429.064169, 423.673629, 428.814363, 440.192216, 444.221489, 438.027647, 451.749860, 445.745251, 447.351687, 425.407837, 416.396224, 439.586733, 454.072516, 437.209411, 432.190386, 430.245142, 432.845661, 433.029407, 444.809497, 425.961958, 436.830095, 451.807017, 460.269109, 442.616678, 440.840398, 432.826861, 450.905227, 451.792356, 443.420289, 421.595036, 423.257159, 427.945651, 448.991131, 447.639383, 447.896471, 430.609474, 445.029337, 449.329527, 454.265720, 445.538441, 445.199427, 433.773899, 441.575899, 437.758727, 447.422342, 437.827114, 446.776231, 441.509298, 450.868500, 449.189440, 454.593291, 442.114053, 454.892528, 460.549213, 483.617091, 492.840197, 479.931104, 456.708288, 444.414230, 431.802514, 428.385150, 424.638120, 438.642803, 436.951160, 454.514945, 443.450217, 436.141737, 429.135971, 441.370998, 457.307128, 457.975139, 447.208530, 442.778715, 426.319583, 446.415743, 448.113390, 448.386869, 431.477979, 463.867544, 545.926356, 684.768852, 779.647838, 750.747697, 588.825436, 395.548023, 267.628000, 271.364903, 342.012264, 410.505417, 427.238556, 433.833450, 434.625500, 443.638384, 446.396977, 451.046011, 431.682883, 442.154390, 450.152042, 456.711949, 448.074202, 460.404873, 461.664891, 472.444828, 466.601429, 471.783679, 456.154103, 459.870787, 470.042415, 476.619617, 465.829891, 467.727352, 463.211717, 462.092354, 466.843256, 492.928440, 492.998928, 510.189920, 514.261310, 503.581761, 499.379974, 512.718233, 525.067846, 540.951869, 531.406735, 515.363413, 494.180671, 497.376855, 507.186402, 522.791111, 501.472975, 482.158155, 453.859360, 454.760764, 454.797784, 459.451473, 457.571409, 446.219077, 432.018889, 451.198474, 441.440137, 441.335476, 440.046240, 443.128840, 418.518925, 428.461152, 422.872798, 418.842258, 409.763358, 425.006043, 423.591626, 437.958377, 443.038564, 449.283900, 424.369500, 432.263750, 445.161083, 448.382467, 430.387068, 441.809603, 422.974010, 437.111637, 448.757613, 446.911614, 435.424790, 443.056097, 432.460765, 437.048301, 432.611437, 445.716300, 448.324475, 452.697391, 441.768594, 441.675801, 455.069904, 465.181644, 458.195587, 444.727668, 426.403734, 432.582250, 445.153632, 445.914137, 438.119491, 439.746677, 434.777773, 438.476080, 439.161554, 443.371921, 450.044936, 465.753308, 462.626408, 462.106357, 454.795131, 452.084801, 446.720206, 433.641775, 426.796775, 437.738076, 437.681557, 443.756297, 441.818893, 453.887095, 463.723007, 481.324514, 465.673688, 446.608515, 430.005829, 448.319546, 454.224712, 456.877025, 460.645103, 465.822247, 459.374878, 484.553366, 478.721646, 460.030829, 454.060671, 457.384015, 446.277654, 460.244573, 475.267273, 467.040056, 437.293861, 426.799761, 414.053719, 433.204981, 446.668888, 454.963781, 436.561451, 423.688327, 437.229295, 453.828002, 443.982496, 446.511019, 440.781721, 446.256960, 473.492239, 564.913286, 685.187840, 772.927537, 779.176042, 640.268868, 425.424721, 270.453973, 231.993838, 292.935716, 363.586186, 432.542451, 441.816658, 449.115234, 437.810254, 454.100095, 446.527590, 456.790259, 480.162799, 474.240685, 470.136905, 483.776794, 460.541349, 446.182905, 440.842836, 440.861150, 454.663460, 484.097936, 467.985293, 463.943623, 465.170654, 477.997976, 479.894713, 486.100384, 480.809681, 495.733134, 497.701724, 509.526628, 500.607636, 497.101104, 509.202168, 502.389327, 489.945789, 499.010879, 509.858496, 533.671031, 527.477442, 519.607223, 510.957860, 516.097660, 504.908811, 504.277630, 486.869264, 491.199779, 504.731514, 493.530134, 450.295048, 419.484621, 415.013550, 426.784367, 436.405968, 444.655289, 440.360530, 434.179077, 433.784982, 431.751281, 428.053706, 430.494197, 434.221383, 443.156779, 432.302869, 442.214216, 445.440132, 433.473985, 421.504717, 420.701923, 425.881776, 444.321974, 443.403168, 439.404566, 432.616022, 442.148934, 446.099439, 464.004013, 450.399701, 444.131449, 455.941324, 455.463368, 453.820359, 452.179451, 437.368455, 430.979547, 432.442315, 441.013142, 436.790631, 446.890711, 440.892539, 446.257730, 443.543652, 433.591942, 442.865895, 462.508103, 464.911086, 481.493111, 451.093287, 429.352344, 430.148615, 442.004478, 447.338965, 443.388456, 429.457751, 432.510713, 456.460240, 464.263971, 436.889514, 436.307591, 449.529326, 485.769494, 516.224358, 492.489060, 439.927001, 423.952669, 436.921622, 459.846431, 466.333188, 460.190984, 452.202347, 444.840546, 440.568604, 442.162288, 443.273834, 451.693237, 452.322003, 450.692990, 447.625121, 460.591966, 470.863735, 465.515419, 436.270171, 411.948172, 416.877264, 423.020564, 434.817239, 454.606618, 458.502981, 455.109807, 493.310452, 598.915250, 740.599476, 829.212868, 751.889209, 544.619744, 306.130639, 195.471123, 255.393738, 346.620119, 402.526882, 429.016716, 434.073071, 443.683178, 443.879635, 446.241751, 428.507631, 443.216697, 476.894078, 489.959727, 483.773762, 475.185021, 476.627891, 464.410842, 446.773243, 444.176872, 450.126937, 471.132325, 484.595731, 475.580412, 467.099605, 466.758268, 486.779430, 501.788287, 498.741337, 489.827441, 494.389863, 506.361974, 522.753475, 506.658133, 491.913157, 492.111972, 494.520680, 520.312957, 532.029071, 522.091714, 516.363079, 521.639268, 520.358988, 514.531886, 513.766577, 519.354398, 514.277397, 497.740303, 480.509995, 436.147842, 421.852434, 420.010325, 431.665300, 427.762064, 435.897890, 432.548294, 424.498059, 423.053020, 430.107872, 430.429223, 436.315434, 448.016907, 456.209227, 436.588076, 426.328195, 407.780465, 401.072503, 411.848174, 443.576683, 438.554771, 435.742896, 433.982214, 437.943674, 440.563681, 451.388904, 450.790263, 441.234803, 433.962752, 451.202826, 447.179491, 451.287325, 456.768490, 445.294482, 444.216817, 442.060523, 443.830530, 441.628593, 425.129133, 430.662518, 439.858904, 448.036634, 446.250118, 444.302467, 437.500825, 452.293669, 455.922988, 465.193538, 438.452863, 421.225317, 424.382577, 435.447742, 434.572691, 448.798159, 453.661547, 451.015221, 445.950078, 453.141223, 445.541341, 448.696713, 464.925638, 469.507369, 465.578553, 476.210570, 466.018079, 452.178950, 435.213753, 427.301409, 433.787205, 446.359201, 447.929553, 435.838546, 427.666749, 440.093239, 441.412483, 437.866790, 436.820556, 445.249962, 454.666980, 475.592628, 449.070838, 416.564993, 413.034748, 431.315848, 442.935232, 460.728342, 499.103585, 601.331146, 728.764878, 786.484055, 690.533642, 515.836553, 325.939227, 253.705458, 278.858288, 347.879945, 396.051671, 447.424849, 460.329924, 458.353842, 433.016926, 427.813770, 431.868837, 456.038922, 474.063640, 464.119599, 449.125563, 452.681265, 452.624729, 468.580702, 463.625993, 477.078739, 483.172833, 490.345895, 466.938029, 467.147894, 471.067636, 485.427277, 480.796463, 485.947204, 462.468946, 478.703666, 502.147112, 505.646322, 513.334030, 505.975628, 505.113869, 530.453420, 524.478517, 543.047736, 538.918490, 521.530977, 508.666099, 503.807693, 500.791852, 514.928779, 507.686847, 496.273978, 460.911812, 474.560921, 472.401336, 472.592372, 466.378057, 440.237549, 435.750077, 449.976265, 452.208095, 454.740921, 434.756691, 431.629718, 425.340915, 426.898111, 422.515989, 431.680921, 428.651521, 439.633533, 431.178361, 436.150638, 425.970215, 440.977837, 436.925372, 443.965750, 434.112591, 455.032974, 459.933650, 467.011948, 448.921297, 432.908531, 407.330180, 425.199931, 434.309190, 453.661697, 451.155733, 449.511298, 437.284228, 445.270759, 443.355797, 459.003788, 448.941023, 452.651292, 441.805797, 444.774789, 440.421282, 460.709580, 451.360897, 442.896552, 433.859896, 431.412400, 428.906723, 446.347588, 454.343541, 445.847371, 437.386612, 453.967770, 439.901064, 452.247936, 454.795430, 456.458676, 441.521450, 445.960409, 448.147660, 448.446262, 456.199212, 458.364214, 443.431557, 451.571591, 450.968126, 473.771148, 473.590177, 468.594038, 455.904366, 461.330965, 462.537463, 468.469168, 466.090604, 460.974425, 442.208613, 457.381226, 452.560369, 453.408352, 437.612112, 430.719508, 417.256767, 425.165821, 437.853810, 456.005556, 453.030958, 441.696712, 430.113234, 437.790684, 446.690186, 468.475445, 488.575811, 546.549724, 641.077585, 748.100097, 777.350436, 664.593382, 475.147653, 306.365021, 229.409780, 297.012907, 373.002396, 440.298140, 450.583640, 452.661226, 444.865505, 456.160690, 445.616544, 443.172935, 451.997868, 476.407064, 473.270155, 472.024840, 445.588883, 431.604828, 445.425997, 474.632734, 470.670794, 475.324776, 465.145106, 476.470372, 472.091524, 501.018198, 474.658830, 487.188879, 480.560765, 490.909205, 484.289619, 493.704012, 487.754345, 498.936139, 495.332867, 504.219571, 496.433260, 514.766558, 512.948590, 517.173605, 517.531830, 518.888365, 510.102272, 513.114585, 498.180200, 503.757271, 498.582443, 501.542777, 475.648998, 468.952611, 452.086649, 456.770680, 442.242841, 435.289551, 420.337334, 435.846621, 433.186299, 449.853656, 440.182844, 448.564833, 449.546218, 452.947844, 428.644044, 425.554627, 421.218823, 439.976840, 455.896181, 447.414208, 424.977626, 423.305448, 417.190176, 441.840864, 440.573221, 441.156713, 437.751036, 448.702243, 444.825325, 463.570250, 440.699136, 440.044618, 441.681287, 453.427421, 449.019121, 450.040749, 432.217869, 431.522336, 433.585280, 448.908384, 441.593114, 445.644553, 441.225575, 445.835085, 443.975125, 451.640238, 448.791676, 457.935901, 454.480835, 455.432645, 435.203689, 454.253632, 441.153320, 460.005561, 451.449209, 447.786609, 432.985978, 446.372128, 439.541670, 451.515336, 450.968642, 450.551726, 443.477372, 451.425059, 453.128052, 470.554315, 475.203366, 473.508671, 448.539870, 453.386600, 437.630314, 455.757106, 453.293307, 450.062558, 442.686597, 451.150067, 449.423396, 463.608153, 461.391196, 462.658657, 456.844217, 462.051477, 456.903248, 476.259134, 486.325308, 487.409450, 479.513764, 467.942099, 450.534371, 472.685559, 465.570118, 467.705831, 448.139524, 433.886143, 425.357021, 445.531474, 448.932586, 451.050970, 438.982565, 446.351231, 446.920564, 465.279717, 461.319745, 461.034129, 441.344497, 460.729036, 473.030142, 460.408827, 451.614355, 495.569078, 592.664569, 715.325647, 798.183025, 726.908350, 542.801533, 364.736957, 260.409323, 276.717711, 354.169283, 441.757865, 468.462856, 469.796004, 449.705129, 460.665148, 450.304260, 454.811707, 450.537903, 449.815450, 452.733216, 480.418491, 476.918542, 465.507452, 453.469384, 456.400075, 454.137407, 471.847125, 480.228245, 484.778057, 502.461642, 511.681654, 482.767404, 472.825250, 459.104932, 475.643850, 483.903775, 495.965360, 488.218499, 497.299676, 504.519710, 511.593303, 509.883199, 512.340131, 519.576373, 535.893994, 529.089283, 515.729158, 511.138615, 518.746438, 510.711953, 507.734909, 490.392582, 484.762986, 468.507834, 474.822066, 458.627910, 455.453890, 464.158506, 455.450036, 446.168988, 439.442604, 444.360054, 464.868986, 448.271573, 448.634645, 430.930824, 433.006313, 448.022557, 434.262177, 422.891031, 430.495453, 437.292410, 448.786032, 436.470559, 437.831745, 429.770643, 450.699741, 462.030856, 448.584771, 443.081552, 460.329851, 461.925628, 461.559643, 431.925270, 418.724272, 415.372566, 432.854085, 450.187069, 450.658335, 433.375343, 440.788884, 447.969580, 464.752878, 456.741053, 458.761529, 448.530456, 459.629612, 467.179504, 482.100460, 439.157248, 432.030724, 427.439985, 439.983388, 450.034416, 445.857058, 431.425658, 439.441181, 457.159038, 468.128825, 452.240667, 443.424894, 443.338768, 465.903410, 476.140178, 461.880809, 441.285624, 437.225008, 436.412547, 441.775311, 440.746024, 435.122442, 439.242621, 464.072173, 462.631907, 463.654826, 452.602436, 454.673901, 468.095800, 463.970763, 466.218605, 451.373466, 423.515555, 433.335336, 436.636492, 448.856466, 453.385933, 462.095946, 452.364266, 460.765078, 454.150048, 463.594259, 472.051460, 471.801076, 492.027825, 497.060074, 488.636759, 474.823475, 468.907187, 450.531679, 440.404791, 452.902789, 456.348349, 449.832042, 446.917406, 448.312341, 438.713696, 441.608414, 446.832380, 456.462441, 458.385070, 471.418022, 466.670073, 440.801605, 419.990174, 410.833231, 429.618345, 455.711803, 453.543875, 452.539338, 454.461608, 502.423118, 611.439841, 757.403128, 812.669353, 719.965378, 550.290002, 355.498362, 236.611729, 270.167672, 346.677432, 400.079989, 426.811257, 441.710540, 454.927657, 446.507013, 458.123174, 460.224245, 449.996534, 458.129221, 468.767446, 471.409320, 455.520546, 469.168267, 468.203574, 457.143253, 458.001308, 469.635613, 464.909462, 460.525904, 462.035475, 464.332246, 466.171827, 474.831380, 497.478011, 494.943089, 494.988973, 486.375284, 477.462203, 496.193630, 510.127971, 538.353004, 532.277302, 509.997744, 499.292056, 499.723518, 502.179955, 505.525986, 505.304297, 515.200886, 510.241184, 500.150078, 499.209256, 484.369902, 470.308725, 468.278085, 467.242269, 458.882432, 462.102326, 460.150141, 440.682265, 428.643439, 440.392105, 447.695114, 436.667656, 416.891910, 415.161570, 420.523618, 432.078611, 431.133996, 421.665850, 416.061754, 433.542313, 443.950855, 437.359198, 428.781735, 433.571899, 448.764586, 444.708449, 429.407604, 425.771521, 437.680511, 444.994845, 443.010433, 428.005504, 424.464204, 443.193647, 456.958169, 462.455747, 452.656446, 452.986751, 462.752646, 453.540907, 436.761312, 428.900402, 429.841453, 444.740394, 442.411278, 437.497218, 432.494361, 434.409365, 443.436823, 442.532048, 436.791374, 445.670183, 451.827032, 457.002414, 459.699840, 449.422078, 439.631422, 445.084871, 437.178547, 441.450392, 445.866300, 434.990000, 436.238652, 439.584932, 454.501256, 453.820867, 454.914060, 437.806416, 438.521321, 451.509046, 450.175208, 450.261055, 442.024193, 442.852667, 468.839284, 468.175131, 451.284960, 430.637714, 428.543529, 441.712517, 465.736639, 486.784579, 477.814057, 483.842952, 473.855710, 470.446926, 447.214313, 447.289707, 442.997290, 452.010379, 446.506121, 447.584861, 429.257303, 419.988722, 422.748081, 436.211418, 438.424881, 446.857632, 451.286504, 441.776900, 435.047997, 438.891274, 441.639642, 462.150423, 469.587332, 466.064757, 480.321857, 541.511903, 657.595520, 778.056475, 758.679418, 614.300301, 406.850782, 250.343171, 215.798771, 309.084275, 389.399420, 439.351852, 456.516076, 456.401847, 445.497428, 452.613634, 455.515302, 455.625974, 448.485497, 449.869557, 450.466659, 445.893366, 467.650257, 473.103447, 458.152165, 455.109962, 462.124383, 472.502674, 480.531448, 494.016669, 482.858772, 480.373998, 476.731091, 484.283111, 462.668906, 475.049650, 473.969078, 489.593573, 488.330194, 497.814475, 505.449351, 516.703428, 525.684678, 531.868816, 517.262919, 518.455989, 526.722792, 537.330116, 520.331275, 507.765988, 493.609222, 493.259829, 494.414220, 490.587833, 464.641019, 451.693792, 448.182630, 456.891685, 441.149723, 436.655681, 445.334300, 449.665598, 456.380486, 454.138654, 406.703250, 402.940540, 407.401341, 428.081217, 436.331727, 435.816058, 416.057710, 417.340772, 426.478627, 445.478669, 448.003539, 435.690398, 416.552090, 427.187507, 445.799466, 466.851563, 458.988295, 441.223370, 400.047777, 415.561842, 431.113851, 446.808231, 450.519664, 447.660689, 436.041373, 442.023522, 442.227128, 445.158017, 439.636497, 451.763057, 437.414328, 447.252782, 444.566909, 456.747265, 456.472779, 450.285016, 435.415961, 428.602632, 421.808141, 441.629756, 435.823621, 445.987009, 442.704738, 441.561749, 428.603096, 438.723689, 439.241178, 464.139056, 474.786067, 467.883371, 444.280557, 429.159594, 407.598232, 429.791340, 431.535087, 450.196754, 439.358402, 453.942838, 451.687074, 459.726718, 456.352456, 463.845831, 470.508528, 493.302677, 498.731716, 484.843606, 435.934586, 421.720208, 415.474490, 432.977043, 451.063997, 444.113273, 437.422758, 439.941014, 437.090515, 448.939428, 440.373367, 440.157971, 445.200656, 457.852753, 467.179034, 452.947990, 433.485926, 430.505403, 418.812602, 446.738619, 448.909663, 472.344877, 549.365215, 671.241290, 775.342680, 767.481348, 610.983236, 412.527695, 260.643618, 264.673732, 323.782869, 407.981520, 413.736438, 438.433431, 436.792063, 448.151961, 456.641166, 437.196962, 435.950750, 450.573074, 451.443865, 467.497002, 457.164712, 472.617590, 486.227683, 484.071444, 462.379662, 465.433832, 448.004913, 467.876913, 480.631028, 482.978567, 468.695491, 470.018908, 469.031604, 485.110165, 498.173158, 510.651411, 495.697554, 498.680777, 491.355946, 516.904603, 515.655453, 519.581737, 508.287899, 519.869106, 512.784095, 523.731422, 510.163767, 506.629623, 504.828858, 513.029611, 511.275500, 500.311911, 490.489380, 487.319812, 465.900262, 453.102120, 429.542039, 429.393894, 420.182945, 439.217072, 429.937374, 442.043402, 440.071554, 437.838294, 435.823301, 442.130690, 436.337484, 461.045808, 439.486437, 426.643383, 424.666357, 423.782660, 425.235904, 438.698980, 421.781691, 428.884442, 424.295358, 435.493650, 431.526457, 435.140263, 442.749555, 453.235713, 447.885287, 455.359517, 452.554515, 451.086910, 437.946636, 440.415451, 433.593633, 457.137300, 451.840432, 451.253538, 426.735306, 425.408363, 439.692385, 456.882831, 441.862874, 444.861979, 447.610531, 464.370727, 459.875008, 450.399924, 419.690688, 427.847915, 445.682474, 472.858912, 440.010180, 439.505967, 425.229715, 449.030285, 452.591842, 459.555187, 450.538532, 451.720331, 453.354779, 462.148234, 452.760701, 454.846984, 457.073337, 458.267870, 433.188104, 440.550147, 434.408773, 446.637417, 443.175243, 443.244010, 444.031065, 457.720334, 452.982193, 461.555845, 459.795932, 477.845607, 476.597552, 482.141411, 451.897706, 456.438099, 474.634842, 491.430547, 467.902980, 455.269751, 433.381437, 439.408155, 440.615753, 450.619388, 436.013255, 435.535891, 433.798811, 450.254451, 454.911685, 466.872082, 466.851750, 467.216526, 439.954057, 441.362057, 435.586811, 435.482326, 430.642186, 454.192840, 445.216595, 467.629889, 535.990264, 655.070384, 768.583875, 800.647391, 652.197900, 445.304799, 271.553850, 245.962398, 320.232449, 409.670898, 429.414501, 450.675104, 442.486472, 447.106530, 443.125996, 439.897294, 432.648172, 459.370952, 461.316884, 459.061558, 460.836892, 474.799152, 470.032527, 477.080548, 466.943174, 454.241229, 467.343493, 472.307769, 457.029966, 465.192150, 468.976401, 480.335927, 473.633546, 478.039940, 476.108032, 495.730180, 501.858420, 528.323700, 509.385987, 495.803879, 500.248826, 490.902961, 491.145833, 509.518845, 502.510380, 505.981100, 504.718228, 512.536896, 506.208836, 505.987962, 498.691283, 495.386780, 483.573227, 488.384706, 473.025156, 470.665163, 452.469412, 438.477267, 418.994595, 421.191385, 423.528577, 439.306769, 432.008424, 434.063864, 440.357211, 442.648918, 443.394844, 440.607492, 428.731445, 438.111866, 449.248808, 444.242943, 420.694107, 428.284937, 423.396303, 437.334183, 437.528401, 436.881273, 427.480551, 435.072990, 443.623666, 443.810140, 442.118962, 468.449962, 463.318217, 460.172960, 437.051192, 433.288402, 426.770003, 446.199438, 446.234290, 441.329436, 427.905794, 436.154687, 438.848341, 447.321635, 454.457043, 457.261479, 448.225522, 450.080110, 454.056274, 462.663322, 468.739563, 455.501028, 435.350727, 423.429837, 426.698126, 447.540291, 447.096554, 450.590271, 446.271558, 450.176493, 462.199914, 460.159421, 442.476270, 449.401349, 447.718602, 463.139004, 460.189885, 451.222480, 424.825844, 436.507077, 450.204166, 457.681074, 451.747302, 442.199771, 432.295004, 440.865291, 448.686252, 465.104858, 439.298062, 450.909477, 460.752574, 473.068989, 470.169431, 462.982391, 434.918120, 435.911444, 447.008632, 471.273856, 462.020066, 455.435239, 449.026414, 461.986894, 475.821975, 484.432583, 473.457203, 479.331560, 473.122336, 487.695764, 480.438279, 451.505552, 428.876392, 436.048582, 425.900358, 444.648268, 445.278945, 443.406708, 442.523940, 445.769396, 438.760219, 454.853983, 448.794776, 460.675713, 474.880523, 477.702749, 461.152754, 450.935042, 454.149616, 523.494731, 669.187153, 788.918060, 766.837486, 619.914096, 414.799040, 273.927433, 257.856171, 344.623659, 413.262489, 457.384385, 472.763606, 468.071720, 435.153441, 428.009651, 422.896682, 441.341937, 454.167743, 467.926631, 453.583160, 453.108965, 459.901577, 478.641431, 474.346663, 478.721601, 483.680456, 478.903156, 482.027876, 477.386897, 472.498908, 462.492909, 454.780136, 465.387867, 470.085211, 486.019142, 501.955460, 498.257738, 497.049197, 504.787278, 509.940804, 516.858023, 518.043654, 525.776911, 523.015246, 511.347811, 494.874899, 495.719204, 501.282059, 523.072269, 524.523900, 510.227121, 477.691621, 472.427821, 477.086323, 471.922653, 463.128631, 457.753166, 448.670846, 453.519231, 460.513096, 447.277153, 421.313373, 427.845769, 427.861178, 439.117327, 449.945351, 435.830984, 432.286677, 430.307519, 432.421201, 437.469794, 438.949008, 445.830874, 440.587078, 440.796114, 439.978064, 436.641259, 446.355484, 448.865888, 432.402506, 431.670024, 435.764365, 455.764183, 461.119374, 454.814897, 422.974159, 413.609538, 430.923615, 455.943774, 467.217078, 462.542143, 446.575626, 437.916061, 437.719811, 444.694014, 452.880719, 456.617964, 457.629386, 454.151285, 427.749892, 434.999044, 442.972679, 451.923397, 467.216316, 456.092751, 446.664191, 450.935055, 452.404012, 446.011123, 447.560199, 441.049391, 436.458834, 449.900251, 452.525312, 449.124535, 456.495560, 458.885931, 449.472212, 448.062258, 449.574487, 439.030650, 451.359740, 444.838477, 457.730615, 448.322903, 445.143330, 446.492567, 443.033898, 450.707067, 459.714639, 464.082331, 461.638331, 463.137963, 465.874912, 469.626619, 444.776986, 442.633809, 440.377255, 437.064427, 457.681059, 474.297259, 473.041178, 470.259783, 471.444691, 462.283074, 457.890356, 471.058317, 481.903921, 469.723587, 455.238036, 422.371285, 415.603987, 417.645358, 443.654906, 464.247149, 455.900231, 437.919968, 433.804781, 441.890198, 452.172101, 453.280184, 445.201463, 443.610056, 460.069744, 471.400023, 480.987067, 514.720455, 600.683337, 740.005922, 804.837743, 705.430938, 511.547123, 307.969251, 229.055330, 271.781160, 367.458009, 421.337657, 455.820974, 465.647156, 468.176832, 459.293148, 443.506372, 436.811611, 453.138253, 452.063997, 449.911637, 453.058477, 463.290759, 467.834973, 465.330073, 455.246625, 467.133684, 475.699223, 486.414693, 482.327186, 470.930553, 473.671653, 502.910812, 490.304943, 477.999638, 474.743120, 480.373267, 497.179504, 501.961375, 501.934107, 515.977422, 524.904878, 520.851801, 511.314880, 496.489163, 503.394203, 531.072841, 538.976673, 519.381865, 502.566510, 510.224701, 507.975451, 502.035494, 477.403099, 462.895755, 453.284833, 461.938027, 463.977415, 448.487343, 433.789072, 433.821204, 434.436313, 447.124234, 448.326226, 462.702813, 449.938201, 426.657062, 407.760058, 413.844788, 413.580848, 435.735159, 427.041861, 422.659671, 416.361954, 438.915311, 439.221204, 428.589052, 433.191751, 449.784759, 449.414245, 474.993943, 456.947322, 434.054728, 429.730631, 439.075393, 421.550125, 437.620596, 435.203206, 440.839404, 443.022904, 445.571226, 436.750102, 443.112024, 441.502869, 449.149590, 448.188882, 456.602268, 454.202951, 454.671315, 440.294391, 435.993441, 428.339807, 443.431938, 434.879954, 436.030682, 440.049870, 450.630092, 450.876279, 451.581390, 434.322266, 435.328455, 437.384087, 456.654535, 466.964351, 458.446863, 448.678584, 445.394332, 424.635279, 433.789411, 434.144839, 449.035213, 447.932886, 451.096981, 431.170280, 445.845589, 439.517607, 452.108230, 445.015071, 445.062832, 448.235837, 466.626936, 472.706647, 459.825236, 439.195413, 439.588085, 436.005463, 447.112119, 456.750599, 476.105467, 473.472148, 485.716492, 467.386087, 461.470541, 455.622844, 472.280138, 455.536727, 440.081861, 425.116961, 435.398519, 450.412002, 463.310114, 450.899787, 447.776014, 431.904571, 446.338062, 448.230378, 440.372621, 432.631080, 448.045026, 435.574270, 462.472187, 462.096214, 467.998786, 477.399634, 558.623196, 673.913771, 773.581999, 761.964706, 625.453264, 404.984764, 272.220455, 237.196663, 310.421819, 385.546380, 440.621598, 461.720524, 471.617705, 442.068382, 444.916897, 444.026024, 455.695464, 471.042830, 482.636849, 453.695314, 465.988055, 455.766816, 454.522455, 445.583816, 457.750600, 473.218885, 489.252310, 469.873169, 463.433264, 462.080995, 485.199397, 487.979398, 497.868644, 481.887261, 497.318606, 509.366413, 507.299862, 476.225169, 483.202094, 483.354008, 510.252227, 515.896715, 517.262245, 506.003875, 516.318707, 517.975688, 521.953527, 522.121967, 533.954070, 520.749489, 512.942017, 479.362160, 472.356474, 457.585235, 463.165255, 448.372612, 445.465713, 440.788702, 447.783451, 434.916203, 440.050014, 427.515215, 446.069535, 447.922748, 434.823849, 420.755347, 424.297921, 430.468965, 456.541226, 443.381811, 424.675843, 404.714053, 420.037258, 425.221556, 440.327977, 428.829818, 435.221037, 429.113663, 444.318786, 443.961955, 442.050224, 444.931104, 464.671789, 453.216261, 451.515629, 430.586799, 434.383566, 434.666724, 448.636115, 441.015586, 437.415153, 432.371673, 449.475091, 442.165964, 447.675677, 438.374090, 444.152083, 447.006395, 452.018102, 439.690502, 448.837440, 449.538799, 474.256191, 464.297847, 451.723090, 424.808562, 425.203992, 435.128446, 447.976191, 445.904921, 440.728783, 437.076408, 451.679426, 462.940186, 471.808297, 449.033473, 449.788328, 441.009581, 452.557603, 453.926655, 462.118220, 440.155430, 437.223751, 426.750070, 427.372799, 420.345279, 434.134075, 432.571762, 447.215999, 443.483002, 451.608255, 443.503851, 453.370399, 444.456278, 440.857338, 427.641161, 436.711411, 448.205195, 467.905019, 456.993358, 454.323736, 431.782091, 452.558983, 451.439894, 468.497678, 462.374604, 471.448644, 468.734813, 465.659587, 453.271194, 452.121586, 444.569169, 461.255505, 454.774507, 445.170384, 428.675799, 432.625161, 428.088066, 443.346721, 443.938667, 452.908739, 449.223410, 451.626854, 430.458505, 438.013920, 430.970340, 453.210661, 453.541733, 443.648848, 433.948708, 487.461137, 576.612787, 729.403425, 802.723094, 728.809966, 562.084260, 365.849958, 231.934874, 272.656743, 346.235397, 415.638276, 441.401144, 444.284165, 429.145501, 436.567674, 449.143906, 453.800351, 445.702090, 465.628920, 454.348718, 457.114112, 452.668290, 457.010252, 456.280104, 467.948283, 456.774562, 474.064714, 476.193475, 482.892172, 474.793945, 479.237517, 463.278510, 471.493324, 471.577195, 475.957790, 483.645504, 505.378148, 503.048998, 496.512615, 485.339255, 499.372670, 500.191507, 523.943662, 513.352470, 516.576556, 522.037247, 542.012893, 520.625727, 505.350298, 484.674864, 496.265775, 503.039564, 499.203818, 468.254268, 460.182913, 455.417058, 472.616381, 469.971636, 443.373703, 424.555682, 441.848013, 443.018508, 454.738938, 452.294719, 445.822182, 431.504459, 435.528234, 426.594230, 428.137045, 421.385764, 436.258014, 433.588897, 437.212740, 430.437881, 442.511556, 424.582462, 443.525629, 448.298591, 446.693950, 447.965935, 456.836860, 449.583429, 457.845644, 441.078896, 438.317441, 418.036845, 442.595195, 437.060069, 439.505751, 441.657640, 453.285912, 445.763291, 456.116413, 440.737823, 444.213662, 446.766187, 461.774899, 452.801559, 445.891730, 446.481507, 462.782709, 459.453706, 455.232361, 428.335148, 430.006117, 427.190729, 448.576723, 455.948405, 455.929284, 440.243568, 449.569646, 455.259035, 462.834772, 461.496171, 455.937504, 433.554417, 447.048339, 451.511293, 468.251020, 446.390897, 452.142502, 455.651285, 460.768309, 454.444914, 437.039653, 410.245172, 420.390395, 451.339108, 470.997965, 474.756864, 462.727351, 439.491879, 443.505511, 444.908462, 460.229397, 466.026719, 465.137196, 448.735823, 448.331242, 447.752122, 447.416988, 452.574165, 453.578084, 447.208514, 473.706903, 470.981902, 478.720410, 456.769098, 455.127756, 453.619753, 476.778481, 495.776412, 489.510563, 487.104022, 480.071882, 456.692156, 466.390797, 452.861159, 455.194699, 444.230033, 451.071235, 437.016825, 441.909499, 459.435676, 464.772303, 446.354910, 440.956310, 443.682592, 465.854331, 470.369385, 471.814630, 438.574401, 436.051069, 450.401668, 460.497021, 481.777368, 558.625957, 671.825694, 789.463807, 769.833054, 619.370930, 428.221321, 289.718986, 269.014029, 329.416600, 391.476554, 444.082359, 457.272820, 476.899525, 438.783716, 425.554341, 425.298704, 440.597692, 464.536422, 468.645592, 463.655395, 468.669147, 472.173510, 475.543618, 474.937484, 476.596513, 481.038384, 469.051268, 463.882298, 460.360144, 458.305111, 489.319164, 486.402232, 477.773101, 465.985280, 475.475862, 486.545019, 496.851000, 496.991702, 491.292200, 504.417701, 519.084328, 538.214062, 538.993119, 506.122270, 494.531047, 489.564524, 510.262130, 518.731940, 520.723308, 502.980783, 487.407525, 479.304215, 484.448790, 482.403643, 470.610663, 465.904993, 464.496239, 455.758336, 446.164888, 439.616324, 445.449783, 434.961441, 442.635947, 433.513352, 428.579518, 418.957707, 433.920182, 439.620016, 431.830628, 439.763536, 450.214518, 452.874619, 448.886677, 449.485729, 429.928246, 420.131081, 434.274698, 438.298627, 435.567549, 441.201393, 444.484915, 443.386500, 443.617810, 455.924602, 451.084927, 455.870839, 454.431590, 457.227487, 444.821539, 454.771884, 456.149859, 448.144203, 442.673877, 438.005132, 432.672560, 431.801028, 439.855425, 448.413446, 457.688312, 455.374278, 457.752591, 442.812347, 441.764841, 445.047543, 455.809959, 452.025075, 469.479378, 465.986899, 450.396547, 441.899825, 427.546779, 431.329003, 444.689326, 454.312846, 450.910161, 440.184495, 448.624902, 456.171065, 443.744442, 447.622624, 452.934879, 454.436436, 471.384904, 482.641602, 454.248971, 432.159370, 434.203237, 437.135533, 442.226696, 454.504332, 450.479813, 439.883506, 440.670504, 455.740392, 459.314199, 462.582763, 448.585598, 456.184017, 447.598173, 462.927209, 479.173848, 466.104913, 451.051569, 446.708550, 440.773971, 444.629038, 455.299746, 455.897434, 467.772703, 474.683574, 485.967656, 478.664595, 464.510537, 463.013759, 456.770323, 467.326560, 480.198775, 466.269989, 460.585146, 435.233467, 430.859589, 433.134671, 433.498106, 440.640244, 441.296037, 443.439813, 453.814156, 456.611554, 444.104500, 440.231339, 442.019728, 466.993336, 473.737861, 505.759367, 569.694489, 666.459945, 760.617208, 753.398235, 622.379860, 431.619120, 281.276479, 250.526295, 309.430612, 391.136246, 442.502658, 463.408751, 454.895995, 452.835548, 448.421397, 453.118832, 454.477112, 459.751876, 452.489509, 443.515782, 453.587966, 462.122502, 469.381591, 472.281434, 463.514805, 463.326053, 476.796526, 487.000341, 484.627144, 471.789110, 467.248105, 480.261221, 474.566837, 488.882439, 498.913092, 492.756095, 494.348169, 509.833014, 493.593472, 488.352181, 493.329494, 513.672246, 503.807854, 520.120153, 520.067390, 520.232960, 525.978170, 527.312196, 519.107276, 499.194674, 482.640958, 486.296300, 473.790870, 472.165407, 464.602714, 469.463465, 452.152763, 448.780314, 444.982156, 434.128737, 433.941628, 439.793948, 430.129649, 436.453917, 443.750913, 438.135247, 433.459896, 419.418507, 412.205662, 429.911861, 438.267635, 454.840175, 430.121755, 431.360386, 431.606101, 433.450444, 448.582325, 439.758714, 429.267281, 428.985209, 427.894903, 451.335560, 444.880317, 445.268806, 434.450385, 440.201312, 447.079665, 461.261691, 456.546088, 438.325972, 423.672168, 434.055909, 443.246477, 449.568155, 441.731876, 436.825274, 431.344965, 455.741259, 449.576872, 448.748893, 455.446110, 437.692590, 439.636125, 446.937080, 431.135933, 441.365405, 453.260269, 455.386941, 438.169635, 440.823714, 447.559296, 449.979450, 448.585404, 448.227909, 433.347387, 440.528022, 447.699247, 460.775769, 443.213807, 432.840109, 434.968285, 438.638292, 441.710067, 454.780131, 450.776610, 454.905304, 447.566512, 454.310348, 451.241236, 457.560086, 450.840185, 462.500728, 450.129832, 456.483787, 458.918357, 473.511849, 469.940938, 468.483625, 458.359516, 462.557367, 454.126214, 458.337726, 449.632440, 459.853722, 452.359979, 456.849613, 447.870125, 430.562525, 426.730629, 450.906478, 452.759090, 439.736249, 428.754288, 435.524239, 432.627762, 458.287183, 445.190526, 453.860060, 468.708890, 488.997282, 566.730005, 644.178143, 723.467106, 777.576417, 676.688826, 490.770129, 300.847189, 227.758016, 258.847256, 352.851158, 409.327939, 441.401726, 446.512259, 464.469575, 471.747821, 455.559531, 439.784561, 457.475030, 453.976230, 454.468032, 435.911579, 447.566369, 460.575022, 480.462862, 471.575155, 466.409243, 467.592314, 485.839452, 488.994093, 493.782095, 480.573885, 485.717700, 481.802901, 486.683967, 467.776966, 476.975150, 487.772074, 494.351200, 495.482766, 508.284502, 505.499393, 517.168309, 524.266732, 551.244581, 533.205499, 561.510282, 526.119162, 512.547155, 497.705494, 494.584743, 496.382826, 506.108325, 488.550458, 486.342490, 460.553125, 459.104869, 456.258617, 466.498602, 449.044392, 448.899119, 427.525068, 432.650918, 441.024487, 435.892581, 417.331568, 418.440270, 406.367812, 422.365228, 424.923788, 423.690042, 420.742640, 447.379112, 434.680227, 439.452751, 427.766369, 439.779190, 443.946047, 471.963023, 457.167000, 438.281595, 422.892874, 439.520101, 430.890336, 448.605234, 444.451688, 441.357617, 432.123310, 447.585748, 436.332366, 437.558293, 438.237285, 455.224478, 450.109205, 456.043375, 446.682709, 436.663580, 437.337130, 451.626419, 450.870758, 447.112340, 432.663998, 436.096031, 424.074084, 442.767117, 444.911576, 450.282212, 435.366824, 443.765731, 433.113891, 444.080940, 458.610354, 475.183116, 448.505669, 450.436772, 435.483301, 437.062400, 441.481751, 457.316256, 439.536042, 433.426888, 426.525064, 440.711070, 437.274886, 463.259656, 476.116987, 480.678098, 470.253850, 459.447137, 447.645501, 457.402712, 457.163923, 489.722315, 470.323027, 462.235372, 452.902488, 453.659706, 436.133983, 448.656341, 447.606211, 459.756444, 435.824377, 446.149002, 429.635260, 445.596747, 453.946192, 469.012179, 440.500582, 425.043858, 420.956150, 443.185590, 443.743416, 458.374740, 452.350809, 453.175482, 469.794934, 557.278357, 660.801497, 753.140199, 749.857894, 645.688424, 451.245966, 307.128168, 244.849749, 285.492866, 350.904581, 426.396183, 456.430607, 459.218073, 443.208448, 439.689857, 444.114008, 455.814147, 450.659034, 457.369006, 456.424710, 468.633655, 482.667028, 470.319788, 444.048634, 456.623232, 456.426886, 480.675001, 470.922935, 464.666598, 451.869893, 461.439603, 474.236282, 494.954609, 491.708713, 499.160134, 491.345967, 486.246903, 491.549772, 515.754104, 517.646287, 509.937178, 505.031938, 499.555082, 500.436147, 520.903723, 513.940807, 531.550241, 507.831231, 522.206873, 512.264718, 495.720786, 480.742741, 480.740702, 472.181386, 468.367565, 478.922018, 471.957859, 436.988051, 429.313836, 418.047818, 422.753289, 437.005091, 451.929305, 444.824191, 434.530597, 415.482736, 426.981169, 424.063358, 442.420791, 454.537799, 455.367697, 424.721926, 426.565350, 408.139440, 419.843150, 431.901780, 448.369722, 447.124188, 442.803027, 431.814925, 433.658135, 428.245886, 443.200969, 433.726415, 443.684297, 452.236249, 462.605989, 455.892653, 445.014180, 427.864401, 441.367424, 444.507323, 460.329577, 435.983277, 439.824656, 434.663693, 450.222928, 448.558396, 447.491723, 434.334825, 446.046441, 449.677903, 458.164999, 452.374766, 459.853333, 450.538812, 444.930603, 430.544372, 439.439594, 429.412509, 455.084223, 450.553907, 441.447361, 433.588325, 445.012523, 447.133250, 446.493152, 442.299489, 446.069755, 448.103923, 471.272134, 460.653679, 457.497121, 430.440626, 435.614260, 441.588087, 454.392332, 453.293127, 461.490361, 458.875039, 451.723317, 447.949797, 450.983858, 451.189520, 472.366854, 477.743769, 488.245850, 469.220578, 458.155062, 452.934556, 450.451205, 446.785290, 456.914898, 440.610732, 437.763012, 436.897178, 450.500799, 458.660567, 455.302424, 436.750383, 440.821639, 434.833513, 438.126471, 441.618603, 449.857228, 441.869826, 456.217400, 449.710774, 461.661891, 512.643372, 640.488551, 763.047425, 767.347899, 680.249859, 494.810729, 317.419728, 261.051090, 298.993543, 369.052070, 425.459026, 460.890078, 447.266918, 440.114306, 433.794335, 444.938125, 439.373931, 447.950959, 448.229836, 456.216760, 461.370942, 471.560181, 471.865325, 470.715208, 468.002113, 473.958266, 471.096171, 481.417846, 471.763830, 468.155777, 464.491070, 459.320533, 467.072646, 475.152801, 476.596375, 490.421580, 499.467531, 508.960753, 503.747651, 503.689999, 508.766340, 520.640408, 534.960893, 526.026719, 501.115358, 493.333724, 508.947337, 515.248011, 515.912942, 507.258616, 488.240862, 487.115568, 485.646967, 478.655017, 464.377271, 464.409619, 459.717401, 453.699809, 441.052447, 450.017332, 446.312691, 458.424941, 434.200619, 419.997952, 415.381506, 421.677568, 429.973322, 432.591598, 424.697792, 433.145267, 434.639760, 437.159920, 424.981554, 433.446033, 438.462890, 459.077067, 457.010449, 448.238036, 449.603364, 453.629352, 450.699408, 440.310158, 423.066978, 427.941394, 424.117953, 447.627083, 448.718606, 443.963285, 439.452214, 442.313869, 436.338896, 434.509570, 455.935549, 472.598760, 468.699511, 463.327607, 447.773956, 428.741723, 430.631393, 442.164399, 433.088233, 433.978032, 438.070076, 456.809520, 452.881416, 447.488917, 445.075066, 440.112190, 437.033978, 459.396521, 462.822256, 453.978383, 458.321092, 450.764531, 423.570332, 433.375707, 441.469709, 462.594355, 453.586430, 459.335102, 444.239655, 440.819880, 456.062683, 456.960205, 442.505767, 446.299498, 457.042676, 471.428132, 462.314111, 449.826442, 432.391023, 436.966152, 459.879893, 471.165144, 459.831304, 451.803487, 441.513950, 470.108594, 488.050973, 486.109163, 481.495286, 473.539996, 467.838374, 465.936531, 468.939913, 455.476343, 448.192335, 449.196696, 450.726867, 432.074151, 431.349889, 443.675819, 446.522521, 441.588505, 449.709752, 454.098149, 449.903733, 444.293024, 436.674051, 436.214971, 446.534232, 482.390410, 477.474161, 461.887319, 497.316252, 621.943341, 749.059290, 787.134783, 706.448466, 496.851547, 307.099471, 232.129130, 280.361316, 360.887491, 440.105013, 472.132639, 464.556959, 439.778812, 444.608407, 439.401833, 449.426182, 452.309373, 452.327857, 455.091822, 454.122666, 454.399941, 463.242455, 467.198274, 470.544310, 472.138371, 469.554799, 476.557138, 495.419110, 489.750838, 492.571653, 467.900102, 446.439336, 454.523659, 480.572605, 482.948501, 491.374727, 498.703398, 498.727588, 498.509192, 515.115951, 512.413008, 505.094572, 518.540454, 545.640330, 543.608393, 536.679948, 533.169586, 496.939669, 474.089219, 491.507949, 481.653116, 482.965669, 482.564607, 451.651183, 442.291345, 440.629377, 448.750764, 450.199874, 454.326845, 451.858808, 443.467535, 448.187131, 433.861708, 422.677976, 423.699399, 437.519423, 438.824466, 440.253826, 430.596922, 422.962408, 420.001225, 429.871745, 429.413846, 433.203809, 438.127603, 437.843997, 440.396761, 434.960516, 439.999459, 447.392988, 438.684021, 448.097783, 442.563692, 444.549632, 460.233461, 444.693190, 429.956553, 432.134800, 426.827082, 437.009208, 447.454909, 448.830155, 442.160455, 446.386202, 449.353974, 455.309614, 448.986131, 464.101598, 455.817546, 448.373103, 439.253007, 435.258016, 421.765241, 430.024806, 439.178828, 449.746536, 445.849462, 451.464013, 441.220180, 450.304683, 460.541294, 453.982760, 449.928765, 463.643263, 458.319043, 477.836318, 465.745157, 434.570052, 424.870883, 430.131728, 434.813371, 447.075156, 440.246044, 442.780908, 441.882065, 446.334133, 439.888718, 449.541262, 456.341319, 450.628884, 453.531650, 451.123301, 457.390521, 483.224179, 491.981276, 472.316655, 432.281152, 438.252359, 440.868388, 464.081717, 480.655749, 461.450654, 466.567217, 462.167327, 462.212482, 447.530832, 458.041977, 458.538183, 464.634693, 458.528704, 444.785216, 422.370123, 422.678917, 430.665234, 439.980556, 435.455266, 443.240075, 441.193073, 446.642755, 446.444446, 458.398035, 452.599631, 463.599973, 470.682643, 525.407877, 608.723477, 744.527903, 803.145463, 714.644991, 527.764263, 330.021119, 222.479396, 270.521514, 365.199692, 431.686262, 443.117993, 446.384516, 444.646048, 464.251571, 470.435221, 462.400772, 447.699796, 453.684279, 454.901467, 455.442807, 450.789424, 450.292507, 455.219636, 473.011131, 472.055320, 469.764000, 470.425416, 478.250534, 475.273878, 484.080066, 473.932263, 486.116580, 476.852133, 479.265152, 488.488254, 507.703918, 512.926506, 515.997400, 499.017532, 481.669236, 496.581216, 516.189741, 523.347963, 526.600984, 514.160836, 514.717267, 517.880147, 530.150586, 531.591833, 528.462720, 490.307041, 466.788979, 461.588544, 480.760049, 469.513487, 453.182968, 428.623518, 434.156681, 438.750403, 442.354193, 433.607641, 431.259043, 431.085671, 446.911229, 432.339350, 422.342899, 443.010109, 457.664715, 416.897081, 378.464384, 433.989073, 509.813126, 439.199444, 355.983436, 