input,,expected output,Actual output
427,,415.821873,341
632,,523.730276,505
496,,504.849544,546
321,,443.464394,478
450,,444.049623,423
635,,499.897097,456
490,,492.633899,498
339,,484.843468,525
487,,487.916886,485
670,,515.522951,474
524,,519.494555,514
359,,519.933836,554
478,,485.936126,497
658,,492.719782,468
528,,516.969294,500
372,,539.701606,552
506,,519.640079,531
668,,499.521018,494
519,,503.34456,496
362,,529.956485,530
498,,515.012652,517
669,,502.490883,503
502,,484.304923,487
327,,491.50841,495
462,,479.729565,478
644,,481.70532,477
484,,466.818491,468
296,,456.152855,466
416,,432.144464,439
602,,443.700953,437
456,,441.269067,431
298,,454.872819,456
434,,447.059969,454
595,,439.059486,441
435,,423.751473,422
280,,435.502443,433
427,,436.401643,435
607,,451.492159,450
446,,438.39237,438
280,,435.869822,438
428,,433.933092,434
608,,451.516374,446
440,,435.576884,434
279,,436.24088,442
433,,436.101174,436
590,,431.956491,428
427,,425.026603,427
275,,433.811061,435
433,,434.031295,429
600,,440.513524,438
446,,445.742476,446
282,,442.035295,442
423,,422.628908,425
598,,437.555627,438
437,,437.878422,432
291,,451.7157,447
441,,439.712603,443
604,,443.138268,448
437,,438.616575,436
295,,455.89728,449
452,,450.118002,448
623,,462.162823,464
432,,434.095391,438
278,,438.691933,441
439,,436.734541,432
601,,440.533193,436
430,,432.398231,435
289,,449.160859,450
438,,435.500158,432
601,,441.229883,441
446,,448.576501,447
289,,448.288883,446
442,,439.363025,441
613,,454.28592,453
440,,442.69211,440
293,,451.046695,451
457,,454.243332,453
624,,466.704774,463
455,,457.848038,457
304,,460.475409,464
439,,436.012785,440
593,,437.388426,438
421,,424.196635,422
282,,436.734096,435
447,,443.499668,440
608,,454.12128,451
441,,444.920808,446
300,,453.082369,454
447,,442.521639,441
598,,445.618474,446
436,,441.187349,441
302,,453.807725,450
454,,447.944751,446
608,,456.613656,458
449,,456.079015,455
315,,466.133045,462
462,,453.755323,454
615,,463.946145,467
443,,452.524766,451
301,,452.143054,451
447,,436.120195,439
591,,439.615041,442
420,,432.258349,430
295,,446.753888,442
465,,451.398417,448
613,,460.781625,461
436,,450.843994,453
296,,448.739952,450
463,,447.078543,445
624,,470.721584,464
448,,464.774406,462
318,,471.791662,476
462,,444.643192,450
606,,451.758731,452
439,,456.639239,450
321,,475.59242,469
487,,469.383591,470
614,,459.180729,467
419,,436.307468,442
291,,445.904362,442
467,,450.240399,441
620,,465.156901,462
443,,459.043334,464
311,,465.641687,467
475,,459.74911,454
623,,468.680083,465
450,,464.486528,467
334,,487.907379,486
516,,502.139532,492
655,,501.555889,500
461,,474.476484,486
310,,462.974975,471
464,,450.575292,446
619,,466.451388,458
463,,476.770232,473
315,,467.210781,472
451,,436.451291,448
583,,430.997135,434
423,,438.75946,427
297,,448.955499,441
460,,442.633025,451
608,,455.911884,460
434,,453.30063,443
302,,454.404228,450
463,,441.537127,451
597,,444.106825,449
414,,437.73498,430
301,,454.527965,448
495,,469.010124,467
631,,476.730365,476
429,,457.100777,460
286,,441.067721,448
511,,481.045224,472
720,,564.133102,533
650,,681.459969,648
637,,793.609016,770
802,,769.444373,776
772,,614.759521,668
388,,421.214429,487
129,,286.714034,311
287,,253.55321,234
490,,332.004812,302
371,,404.296659,388
296,,454.06231,453
490,,457.160454,458
616,,458.089269,457
420,,452.172932,452
295,,452.550138,454
479,,447.589837,447
611,,453.994127,451
421,,451.668376,450
299,,455.313809,456
486,,455.938375,455
616,,460.480287,458
428,,457.689643,456
313,,467.672815,468
486,,456.366587,458
627,,473.175455,471
437,,466.947446,462
320,,473.022132,473
512,,481.340531,482
633,,480.691922,478
445,,476.767024,476
338,,489.714938,489
504,,470.758508,472
634,,482.733598,484
450,,485.028667,479
353,,503.974033,497
522,,484.944161,489
644,,493.159935,500
433,,472.234628,470
338,,488.855585,483
539,,497.530312,494
670,,518.995392,516
466,,509.662333,508
359,,510.263251,514
553,,507.280814,508
676,,524.395538,517
473,,520.554982,516
371,,522.997296,528
557,,507.900047,513
671,,518.588527,515
467,,517.300957,511
370,,522.816356,523
563,,511.873135,516
642,,488.814966,495
412,,463.567512,470
310,,463.492891,462
495,,443.363435,440
595,,441.278782,446
381,,432.367694,437
294,,447.8551,442
490,,439.185134,432
594,,440.113589,445
383,,433.046182,440
279,,432.811151,430
494,,444.857806,436
619,,465.367914,459
407,,455.188038,459
300,,453.355608,460
490,,442.729245,441
593,,440.006009,436
388,,434.471106,436
278,,430.562046,434
463,,417.139015,419
588,,435.920972,431
391,,436.496171,430
293,,444.564987,445
485,,439.584544,444
591,,439.957697,440
383,,428.635781,426
295,,445.531687,443
483,,436.845713,437
588,,437.946334,441
403,,449.946337,445
309,,458.624498,451
497,,449.02955,452
600,,450.742415,457
394,,443.169199,441
294,,442.959661,438
495,,444.523512,445
607,,458.267362,457
383,,434.820187,435
284,,432.570192,438
486,,432.868792,432
591,,442.538145,435
385,,439.344885,437
303,,451.390519,454
504,,448.592086,447
587,,438.664625,439
383,,439.280315,442
294,,442.271323,440
493,,436.059457,433
602,,453.826238,452
407,,464.383851,460
315,,463.018152,461
515,,457.37543,461
592,,444.215064,448
382,,439.691537,440
298,,445.458217,441
502,,444.3708,441
592,,444.968401,447
377,,434.490488,438
297,,443.507044,442
503,,445.665686,439
603,,457.102607,454
384,,441.218685,446
310,,455.223422,457
505,,447.801077,442
603,,458.484635,455
404,,461.320804,461
307,,450.807921,454
502,,444.380043,448
602,,458.859991,454
393,,451.116816,445
310,,452.54849,457
501,,442.181836,448
594,,451.932849,448
391,,450.71441,443
319,,460.720206,460
516,,455.216238,459
592,,450.477918,453
382,,443.991849,442
314,,455.472338,451
516,,452.702104,451
594,,452.442365,456
393,,457.65555,457
319,,460.749123,455
520,,453.980264,454
593,,450.992745,457
380,,447.347411,448
320,,462.28195,455
531,,462.396342,457
617,,474.480331,476
379,,448.761128,455
305,,447.66531,451
509,,438.195882,434
593,,450.33004,446
388,,459.725923,458
320,,462.492673,463
524,,451.469298,454
599,,456.892908,456
377,,450.2287,448
318,,459.501219,460
546,,472.163582,468
619,,478.318587,472
388,,462.370819,467
321,,460.669179,469
530,,455.15074,452
599,,460.497861,452
391,,466.284192,465
333,,470.228215,474
554,,478.316084,476
626,,490.095929,482
420,,496.049272,493
353,,487.587988,493
543,,466.623567,474
585,,451.662197,454
377,,453.655613,449
351,,483.204063,473
550,,473.124142,471
587,,455.770877,469
368,,445.025233,452
305,,435.441993,428
519,,441.903527,436
595,,465.140367,464
381,,458.087131,459
315,,444.484225,448
521,,443.995764,445
585,,455.693302,449
376,,452.862938,450
319,,448.306016,454
531,,454.310938,456
588,,458.545766,452
385,,461.515192,457
345,,474.7166,475
550,,473.619306,473
635,,504.943087,498
511,,587.325463,564
594,,724.437298,684
884,,807.611554,781
871,,740.17721,768
529,,605.600894,666
265,,396.180135,443
335,,258.014699,280
395,,263.518675,251
254,,331.550039,297
268,,399.701455,380
528,,449.709569,453
597,,465.178631,467
375,,454.186323,450
321,,452.824944,453
533,,452.793604,455
596,,464.298385,460
380,,461.308626,457
330,,461.443717,465
535,,452.552815,456
580,,448.950719,447
366,,449.574714,446
336,,466.519735,463
558,,473.349976,470
607,,477.13696,476
387,,472.639825,475
345,,474.091603,475
561,,474.475452,471
603,,474.774797,473
383,,470.297489,473
360,,487.288376,485
577,,489.032507,483
607,,480.68737,482
383,,471.554673,479
347,,472.332758,472
569,,479.910115,472
623,,498.612204,493
427,,516.60784,514
378,,501.516048,504
586,,495.854905,502
629,,506.244943,502
420,,510.732756,502
397,,519.135994,519
610,,518.604911,522
647,,525.316616,523
426,,518.143982,515
413,,534.409841,533
624,,531.019732,530
642,,520.683068,525
422,,515.891218,519
380,,501.391501,500
594,,499.145041,499
615,,493.391477,496
399,,494.840875,495
357,,478.929887,478
552,,455.183827,462
567,,444.690411,451
343,,440.747451,437
321,,443.694624,437
556,,457.392749,456
567,,443.968161,447
335,,434.374614,439
315,,438.269734,436
541,,440.960297,435
566,,442.634669,442
345,,445.601898,448
315,,438.285264,439
543,,441.92822,440
566,,442.988776,440
335,,436.466577,438
301,,423.538849,429
521,,419.189777,420
540,,418.118608,414
320,,422.126008,420
306,,427.064422,428
540,,437.56344,434
561,,440.874466,436
348,,450.759243,450
328,,447.108981,449
543,,439.893691,442
558,,439.935986,439
338,,441.481101,438
321,,438.037621,438
555,,451.119022,451
562,,445.926863,444
343,,447.295814,448
336,,451.204207,450
539,,434.287378,435
543,,428.544808,433
334,,439.115221,436
325,,438.837379,433
544,,438.51065,440
556,,442.64835,445
330,,435.822253,435
333,,445.986879,443
571,,464.892869,458
572,,459.275434,458
343,,449.341534,457
322,,434.538676,440
540,,433.469592,430
554,,441.598805,435
341,,447.682932,446
343,,455.282137,456
559,,452.185699,451
548,,435.845329,438
334,,440.94164,443
324,,435.993855,433
542,,434.913705,434
557,,445.217929,444
333,,440.268339,438
327,,438.50648,439
553,,445.492049,445
566,,454.838691,450
361,,468.822476,464
347,,457.745301,460
557,,448.771534,456
550,,439.735873,441
339,,447.738136,441
335,,444.726781,441
574,,464.638275,465
551,,441.852315,444
323,,433.104096,439
328,,436.543162,435
557,,446.033279,438
550,,442.066517,440
340,,451.943993,455
348,,455.339388,453
563,,449.975213,447
557,,450.216187,452
337,,451.188738,452
329,,435.28799,436
559,,443.591755,444
560,,454.127398,449
348,,464.64576,458
356,,461.553422,463
576,,458.142748,464
560,,454.657812,454
333,,451.991314,447
344,,449.242186,449
579,,459.005288,460
563,,457.750536,456
345,,465.813452,463
363,,468.34902,467
592,,470.599775,470
575,,469.482751,469
346,,467.716726,469
363,,468.719922,467
572,,450.258784,451
545,,439.083197,445
323,,444.469626,445
333,,439.061541,434
574,,453.079085,449
552,,445.891892,447
320,,440.134909,445
329,,435.012138,435
554,,434.826309,431
542,,436.262051,434
319,,437.115192,439
332,,437.259678,438
561,,443.949611,439
540,,435.432911,433
324,,440.073607,443
350,,453.66494,451
588,,472.722789,463
563,,460.424035,460
370,,484.741022,488
452,,553.337115,535
774,,659.472271,623
880,,780.000555,748
668,,782.674644,783
516,,614.621431,671
522,,406.807034,483
351,,253.733503,282
113,,229.0645,204
198,,293.994883,261
507,,389.753607,375
527,,432.139223,429
325,,443.673305,444
357,,450.905147,448
575,,454.733352,451
539,,445.845134,448
331,,452.939859,456
360,,452.618183,449
581,,457.390641,453
547,,454.712915,456
334,,459.199656,461
363,,455.136109,453
588,,461.347669,459
550,,457.872178,458
332,,459.927591,461
365,,457.214198,456
594,,464.991437,462
559,,466.656114,464
337,,466.897736,468
382,,474.464361,473
608,,477.383731,473
575,,482.471055,481
355,,486.196159,487
382,,474.497727,477
611,,479.323477,479
578,,485.657334,480
362,,494.09423,491
408,,500.046103,500
635,,502.51945,502
579,,487.396698,488
370,,502.853915,502
412,,503.018561,498
648,,514.779889,512
612,,521.694087,520
387,,520.569416,520
421,,510.484095,513
651,,517.118566,518
614,,525.423286,519
403,,537.126669,531
433,,520.60741,525
640,,505.725267,515
577,,490.399356,492
349,,483.297942,480
410,,495.577936,492
623,,488.820039,488
560,,475.44001,481
322,,455.918063,463
367,,450.564179,451
583,,449.471161,444
526,,443.39239,444
307,,440.046212,445
350,,431.705151,433
570,,437.477809,433
505,,424.127594,424
297,,429.019939,433
343,,423.122759,422
568,,436.388767,431
508,,428.528986,427
305,,436.365511,438
351,,429.92985,430
575,,443.655683,440
528,,449.489672,445
322,,453.59224,453
354,,432.218039,437
551,,418.866102,426
493,,414.94582,414
299,,431.967671,422
360,,438.011383,432
576,,441.932522,448
519,,440.924701,445
308,,443.381919,436
362,,440.221464,436
574,,437.158434,443
511,,432.581536,437
311,,449.36293,442
366,,444.62663,438
596,,456.140806,459
528,,449.197035,452
308,,449.246074,448
371,,449.901535,447
603,,460.547453,458
529,,450.120382,451
299,,442.424817,448
348,,426.698657,431
585,,440.866368,436
507,,428.669554,423
289,,433.573568,438
364,,441.757315,443
600,,455.234847,446
526,,449.023052,445
302,,446.748968,455
358,,434.000736,440
580,,435.416968,430
522,,447.14376,439
323,,467.333179,464
380,,453.582775,458
595,,450.931294,456
505,,432.767862,433
300,,443.851173,441
380,,450.860636,446
596,,452.268066,452
512,,442.472742,446
306,,449.745667,449
365,,433.286933,432
592,,448.089677,448
520,,452.811488,449
316,,460.224198,456
380,,446.268161,449
594,,449.329611,454
507,,441.450892,439
302,,447.217491,442
380,,445.037386,444
598,,452.173226,454
519,,454.275809,452
305,,451.454591,449
394,,458.584498,458
607,,459.940053,459
514,,449.417754,451
300,,447.605992,450
390,,454.671303,451
606,,457.93428,453
511,,446.197666,451
310,,458.420971,462
393,,457.924592,450
620,,471.334609,465
534,,469.007232,472
329,,477.800837,480
395,,459.967937,459
612,,463.161775,464
528,,463.177131,461
326,,474.792393,471
395,,459.540721,461
609,,460.317682,465
517,,452.882064,452
301,,449.525995,447
367,,430.560493,435
593,,444.658619,446
495,,432.115245,427
287,,435.142199,435
371,,433.111777,436
596,,448.059746,444
503,,441.733185,437
303,,450.742791,453
383,,443.373349,446
602,,454.443998,451
503,,443.546844,440
325,,472.383112,470
390,,448.521568,449
617,,469.77206,472
550,,492.41091,483
444,,591.092745,564
658,,714.658494,676
899,,752.018803,739
743,,687.27197,721
393,,539.895674,592
291,,345.789991,387
411,,264.160295,278
321,,267.164982,249
194,,340.814999,313
350,,402.851581,388
608,,461.176473,458
511,,459.169615,458
310,,456.864687,459
399,,449.763414,451
608,,461.06204,457
512,,462.352283,457
331,,478.040547,477
414,,462.483403,466
601,,453.829362,458
492,,444.723753,445
303,,450.325758,446
400,,446.034706,444
613,,465.493615,465
502,,457.228194,456
316,,463.714173,464
417,,460.501663,460
619,,471.044937,469
510,,467.758831,466
331,,479.23668,478
445,,486.006622,483
648,,499.429592,495
526,,486.184263,488
355,,503.96747,505
463,,501.684542,496
644,,494.560165,495
513,,475.370243,484
327,,476.995425,479
432,,468.665959,462
647,,496.361387,490
546,,510.191998,505
368,,519.365554,518
461,,496.068049,503
661,,508.834524,511
548,,513.542215,504
371,,524.01741,518
481,,514.985197,520
675,,521.106834,526
562,,528.343599,521
386,,540.756121,532
492,,525.4722,530
662,,506.43371,518
486,,452.570092,464
291,,447.280899,449
420,,453.520186,442
624,,467.139351,460
481,,447.270649,457
295,,452.270785,460
397,,431.036809,425
594,,436.512761,432
463,,428.581911,432
284,,441.496749,444
402,,436.843086,432
608,,450.698766,446
480,,444.720161,445
289,,445.9157,450
391,,426.693222,430
597,,440.629098,438
480,,443.949393,436
288,,443.707491,444
384,,420.320384,430
577,,422.024583,425
449,,412.524494,406
276,,430.228169,425
399,,435.4927,435
595,,441.47891,442
465,,428.64362,429
287,,439.904303,439
403,,439.056854,435
600,,447.578635,446
467,,431.406659,435
287,,439.103279,441
413,,447.971318,441
620,,468.03104,460
502,,467.795129,468
319,,471.021378,475
394,,427.313284,434
572,,419.749661,427
444,,411.677396,408
283,,435.630991,425
409,,440.261513,436
602,,448.871196,454
466,,435.837824,439
285,,438.699951,435
405,,434.055616,432
608,,453.702368,452
481,,453.027623,450
303,,457.873167,457
410,,436.937806,441
615,,459.617527,458
494,,468.027162,458
321,,476.786732,474
445,,470.089717,476
620,,463.941867,467
452,,427.706325,430
275,,431.179172,435
413,,436.579434,431
594,,437.852427,432
453,,430.064334,435
292,,447.972678,449
428,,450.343034,442
619,,463.322702,458
465,,443.221796,450
298,,453.293934,458
413,,434.214005,429
604,,449.135126,445
482,,461.374889,459
311,,465.435964,465
426,,445.988246,451
602,,447.944546,451
463,,443.712427,439
295,,448.767134,445
425,,443.514056,447
600,,446.390971,449
461,,443.330766,439
292,,445.607225,442
425,,441.762691,444
613,,459.22433,458
464,,448.186396,444
299,,453.111606,454
439,,453.845876,454
612,,457.402426,455
462,,448.112466,449
308,,463.199619,463
452,,464.964402,460
635,,479.127723,475
487,,474.900912,476
330,,486.559311,487
453,,464.304962,465
613,,455.798921,461
459,,448.413479,450
294,,451.737107,447
435,,444.935615,443
606,,447.8858,451
447,,437.665457,440
284,,442.288628,440
429,,437.754986,435
604,,445.766735,445
450,,441.836264,442
290,,447.937859,448
431,,438.523952,438
612,,454.586784,451
459,,452.197469,449
305,,461.687836,463
445,,450.971672,453
622,,466.191487,463
445,,439.984567,439
289,,443.833652,450
446,,449.929809,448
616,,462.169305,452
472,,469.273402,466
404,,556.867389,544
665,,666.430171,629
903,,750.991538,722
769,,768.922196,775
487,,638.307688,682
420,,418.713586,484
441,,290.193883,326
269,,271.613573,249
194,,344.526624,303
425,,421.142489,406
611,,460.524538,469
441,,445.977075,453
290,,440.640394,437
439,,433.057207,428
595,,444.004327,445
415,,421.737235,427
299,,450.503148,448
470,,462.641061,449
622,,469.880505,466
444,,451.819454,464
295,,447.798443,454
449,,440.855999,432
618,,464.50207,455
459,,467.365664,467
323,,477.181198,480
462,,453.476227,456
628,,473.178178,471
463,,471.656721,465
326,,481.401924,480
486,,477.199592,480
638,,482.085584,482
470,,478.982154,475
318,,474.35875,474
470,,460.779211,467
630,,473.259011,473
466,,475.522805,467
345,,502.068127,496
516,,506.114908,506
662,,504.652392,507
477,,487.293838,491
343,,500.582049,498
507,,496.270384,490
668,,510.229888,509
504,,515.167897,515
379,,536.903004,532
540,,528.414617,524
692,,534.032177,537
509,,520.960603,524
339,,496.94648,501
502,,489.720762,493
652,,494.179284,490
461,,473.533391,473
322,,479.572382,485
481,,468.274959,469
621,,463.810804,462
442,,454.863259,456
306,,462.664839,463
455,,442.034359,443
598,,441.996501,445
421,,434.05393,434
287,,442.218257,439
459,,445.845658,442
611,,456.66639,455
434,,447.292457,449
283,,436.381518,441
427,,413.506642,418
570,,417.598385,417
404,,417.776931,412
276,,427.435418,425
445,,430.841043,431
594,,443.473998,441
411,,425.64626,425
290,,439.710286,441
452,,436.760073,434
590,,440.981605,439
421,,436.933729,437
290,,438.469348,439
463,,446.283048,443
600,,451.928046,448
440,,457.572965,456
329,,476.821548,474
447,,428.516409,435
577,,429.296524,441
396,,415.428202,412
281,,428.692279,418
458,,437.611864,435
596,,448.242761,451
415,,436.345674,438
284,,431.863162,433
454,,431.712036,430
606,,458.023322,450
422,,445.20537,443
302,,450.067169,456
472,,447.905378,449
607,,458.887527,452
439,,463.956267,459
332,,480.098415,480
482,,456.203033,461
585,,436.977189,445
399,,425.625871,427
279,,426.892748,421
460,,432.543907,428
587,,439.273757,440
405,,433.300508,435
292,,439.54741,438
472,,442.827111,438
604,,456.612993,453
412,,442.082212,445
294,,441.275066,446
471,,439.965315,437
602,,454.759832,447
427,,459.03055,456
327,,474.304193,475
484,,450.93416,454
595,,447.517502,452
417,,451.129322,448
305,,452.779065,447
479,,443.794166,447
596,,447.81155,453
393,,429.274664,429
285,,433.693256,431
469,,431.686273,430
596,,446.731976,445
413,,451.298722,448
308,,457.878576,455
494,,454.792213,455
611,,460.512662,461
410,,450.02091,450
314,,465.053659,463
501,,460.275582,456
601,,449.460421,453
400,,441.309755,448
292,,443.909979,442
479,,437.222965,432
603,,450.862327,450
390,,432.132613,436
291,,443.202413,445
488,,445.608746,439
623,,470.905641,463
438,,480.572541,478
330,,481.811449,485
511,,468.297845,472
625,,473.638385,471
419,,461.807284,459
307,,457.75892,462
503,,460.082729,461
606,,455.975159,452
404,,447.058857,447
319,,468.183745,468
483,,439.742719,440
588,,439.735838,444
392,,435.531937,435
284,,431.294299,429
468,,424.101918,426
573,,426.696826,428
383,,427.363701,424
295,,440.316596,435
486,,441.067719,440
594,,449.641109,451
394,,439.600707,439
300,,443.449544,443
502,,455.637207,452
603,,460.394538,456
416,,463.207873,463
387,,528.838253,518
681,,632.875349,598
896,,754.843061,717
752,,801.09976,792
554,,694.565444,734
538,,487.878537,557
445,,304.934549,353
171,,222.178078,221
141,,280.654421,245
418,,365.73903,336
578,,438.671209,433
393,,446.362075,453
304,,443.082041,446
499,,444.523703,439
598,,459.091905,452
401,,456.59846,457
340,,478.799558,480
513,,456.274751,455
603,,464.248842,465
396,,453.851727,454
316,,454.757694,455
506,,447.026726,448
592,,453.182684,452
397,,457.082525,453
311,,449.92934,450
508,,446.828497,451
602,,462.903228,459
395,,457.228961,451
330,,469.323235,470
541,,477.756701,477
621,,481.385239,477
426,,490.20064,488
360,,499.975961,498
561,,495.911595,495
631,,490.588707,494
401,,466.893685,473
339,,479.920756,478
541,,474.392819,467
629,,,487
434,,,501
360,,,499
569,,,500
648,,,506
444,,,510
377,,,516
589,,,519
680,,,535
451,,,520
382,,,528
581,,,512
648,,,505
410,,,484
320,,,471
528,,,458
601,,,452
383,,,453
311,,,458
512,,,443
593,,,447
373,,,441
297,,,442
512,,,442
583,,,438
369,,,439
295,,,438
499,,,429
588,,,442
349,,,420
270,,,420
486,,,415
575,,,422
364,,,430
303,,,449
508,,,439
565,,,424
352,,,423
309,,,442
508,,,433
576,,,444
367,,,440
313,,,442
529,,,451
601,,,466
356,,,437
283,,,425
492,,,413
564,,,420
375,,,445
319,,,454
515,,,445
572,,,441
363,,,434
326,,,452
523,,,448
571,,,447
360,,,437
314,,,437
528,,,447
592,,,464
372,,,452
316,,,446
527,,,446
570,,,440
337,,,423
298,,,429
525,,,433
584,,,447
377,,,463
316,,,452
525,,,442
575,,,440
361,,,442
323,,,454
541,,,455
580,,,450
372,,,457
338,,,463
537,,,452
572,,,450
345,,,434
307,,,431
524,,,433
570,,,443
365,,,451
320,,,445
534,,,447
575,,,448
361,,,447
319,,,445
546,,,456
594,,,462
390,,,474
348,,,476
536,,,456
575,,,452
376,,,453
339,,,458
551,,,470
596,,,473
388,,,467
350,,,472
553,,,473
581,,,461
361,,,446
330,,,450
542,,,453
572,,,451
351,,,443
326,,,447
552,,,454
584,,,459
346,,,446
300,,,431
522,,,424
552,,,421
350,,,444
331,,,454
552,,,453
577,,,453
351,,,450
330,,,452
565,,,461
641,,,504
543,,,610
658,,,738
901,,,793
809,,,737
401,,,567
180,,,341
335,,,236
423,,,268
267,,,338
299,,,422
550,,,456
585,,,454
361,,,454
332,,,461
541,,,449
568,,,442
351,,,442
344,,,463
561,,,464
568,,,452
360,,,458
349,,,460
566,,,464
584,,,472
365,,,466
353,,,464
577,,,472
584,,,471
373,,,476
366,,,475
575,,,471
576,,,469
373,,,476
372,,,475
596,,,488
608,,,500
399,,,504
399,,,504
611,,,505
618,,,511
415,,,517
414,,,518
620,,,517
623,,,519
419,,,520
422,,,523
628,,,525
613,,,515
395,,,502
392,,,492
604,,,497
594,,,493
371,,,481
363,,,469
573,,,465
575,,,468
349,,,458
321,,,435
534,,,429
528,,,416
318,,,423
319,,,428
540,,,432
538,,,428
325,,,432
325,,,433
551,,,440
539,,,430
311,,,425
323,,,431
550,,,432
545,,,434
327,,,443
346,,,452
557,,,440
541,,,438
325,,,441
330,,,432
569,,,449
556,,,449
337,,,455
335,,,443
548,,,433
529,,,424
319,,,432
349,,,447
569,,,451
552,,,453
328,,,447
354,,,451
566,,,445
550,,,452
334,,,452
342,,,441
556,,,439
528,,,431
328,,,443
361,,,451
573,,,455
542,,,452
318,,,439
336,,,429
566,,,442
552,,,452
328,,,450
348,,,448
575,,,450
559,,,455
343,,,464
359,,,462
553,,,437
519,,,424
328,,,441
369,,,455
574,,,457
525,,,443
312,,,433
364,,,442
584,,,456
540,,,459
330,,,458
371,,,451
601,,,468
568,,,481
357,,,487
361,,,454
588,,,462
558,,,461
351,,,472
379,,,473
574,,,457
523,,,436
315,,,434
354,,,438
574,,,450
526,,,441
319,,,444
347,,,432
566,,,440
531,,,442
339,,,459
370,,,455
576,,,457
523,,,441
316,,,437
357,,,437
573,,,448
522,,,441
323,,,448
365,,,444
610,,,476
620,,,522
532,,,629
694,,,739
902,,,774
738,,,708
321,,,514
183,,,303
391,,,248
416,,,288
239,,,355
311,,,415
563,,,431
522,,,414
318,,,445
355,,,455
576,,,448
527,,,430
325,,,450
374,,,462
596,,,466
555,,,466
370,,,492
409,,,490
606,,,486
534,,,461
341,,,463
389,,,458
608,,,481
546,,,475
336,,,466
391,,,461
621,,,484
548,,,475
350,,,487
408,,,478
620,,,482
564,,,491
383,,,514
447,,,513
640,,,509
566,,,503
396,,,522
469,,,523
666,,,536
582,,,529
398,,,528
478,,,527
690,,,552
580,,,532
363,,,512
425,,,482
633,,,486
573,,,509
342,,,489
397,,,470
599,,,457
514,,,443
319,,,460
377,,,447
570,,,434
479,,,415
288,,,425
372,,,431
573,,,433
486,,,428
299,,,437
371,,,427
582,,,442
471,,,418
274,,,419
355,,,407
581,,,430
491,,,432
283,,,434
357,,,418
569,,,419
486,,,422
299,,,443
372,,,433
574,,,432
497,,,434
307,,,444
376,,,437
579,,,442
489,,,429
318,,,450
399,,,452
587,,,454
477,,,430
291,,,428
368,,,415
563,,,425
475,,,426
302,,,436
392,,,436
598,,,458
489,,,444
310,,,451
382,,,429
572,,,433
481,,,432
310,,,445
403,,,447
588,,,451
467,,,427
291,,,431
400,,,434
584,,,440
476,,,442
298,,,441
388,,,423
582,,,438
479,,,440
309,,,449
407,,,444
614,,,467
508,,,465
303,,,453
389,,,437
583,,,435
479,,,430
318,,,460
415,,,457
611,,,466
500,,,456
321,,,465
417,,,459
592,,,451
479,,,441
314,,,452
408,,,443
606,,,465
485,,,448
281,,,429
374,,,416
578,,,428
466,,,422
292,,,440
394,,,434
585,,,436
471,,,431
287,,,435
392,,,430
583,,,434
486,,,444
318,,,460
405,,,446
616,,,471
583,,,522
537,,,639
736,,,744
895,,,768
642,,,661
270,,,469
208,,,273
393,,,237
351,,,276
241,,,365
395,,,437
588,,,447
489,,,444
337,,,470
427,,,466
585,,,456
454,,,425
297,,,429
408,,,432
599,,,460
480,,,452
324,,,461
434,,,457
605,,,465
473,,,452
332,,,470
448,,,462
623,,,481
508,,,490
357,,,495
457,,,476
635,,,496
515,,,492
351,,,490
443,,,470
615,,,478
499,,,470
353,,,486
489,,,508
652,,,512
522,,,504
374,,,513
494,,,508
667,,,524
545,,,526
396,,,536
507,,,524
670,,,530
542,,,525
376,,,518
484,,,505
625,,,489
463,,,454
320,,,460
438,,,446
592,,,452
458,,,449
300,,,441
417,,,428
584,,,442
449,,,436
297,,,438
417,,,430
585,,,441
454,,,438
311,,,452
423,,,438
578,,,439
423,,,412
278,,,420
419,,,425
580,,,433
425,,,420
286,,,432
433,,,432
590,,,440
434,,,435
289,,,439
422,,,421
583,,,433
437,,,435
301,,,447
436,,,435
590,,,443
448,,,446
321,,,462
458,,,456
596,,,456
436,,,441
287,,,431
435,,,430
604,,,453
447,,,447
299,,,451
437,,,438
582,,,433
440,,,438
319,,,460
450,,,448
592,,,452
458,,,457
322,,,458
447,,,449
599,,,462
428,,,429
302,,,442
445,,,440
594,,,451
439,,,443
305,,,448
445,,,440
589,,,445
438,,,442
304,,,447
437,,,434
586,,,443
444,,,443
339,,,473
472,,,467
582,,,453
418,,,431
307,,,437
462,,,442
604,,,467
438,,,457
301,,,443
452,,,435
598,,,451
449,,,460
318,,,463
457,,,448
599,,,454
467,,,469
341,,,479
479,,,476
615,,,477
460,,,463
329,,,467
457,,,456
609,,,469
432,,,435
314,,,456
455,,,448
587,,,446
426,,,436
313,,,451
460,,,445
593,,,453
426,,,442
316,,,454
470,,,449
603,,,462
419,,,442
294,,,440
470,,,443
594,,,444
424,,,450
319,,,465
502,,,469
708,,,541
674,,,661
658,,,771
795,,,784
754,,,671
367,,,457
115,,,281
285,,,234
482,,,302
378,,,392
310,,,459
472,,,447
594,,,446
422,,,445
310,,,455
472,,,448
594,,,449
423,,,445
316,,,457
488,,,461
620,,,474
455,,,477
344,,,486
496,,,475
610,,,471
438,,,460
327,,,465
484,,,461
607,,,468
444,,,465
345,,,479
503,,,478
623,,,487
454,,,478
349,,,484
512,,,485
626,,,490
473,,,497
407,,,531
566,,,532
653,,,531
459,,,502
369,,,495
553,,,504
670,,,535
482,,,528
375,,,515
528,,,489
645,,,505
468,,,503
358,,,500
520,,,488
609,,,471
433,,,468
341,,,477
501,,,466
599,,,464
427,,,462
335,,,467
482,,,450
567,,,441
375,,,414
280,,,411
468,,,425
587,,,446
408,,,446
306,,,447
469,,,432
574,,,434
387,,,424
298,,,436
482,,,440
588,,,446
399,,,441
300,,,442
482,,,438
591,,,446
399,,,442
298,,,443
479,,,436
582,,,437
397,,,438
302,,,445
470,,,429
576,,,434
396,,,434
315,,,451
497,,,453
587,,,451
401,,,447
308,,,443
494,,,446
597,,,458
417,,,462
326,,,463
485,,,443
568,,,437
390,,,433
307,,,436
489,,,443
590,,,457
403,,,448
321,,,453
499,,,451
598,,,463
421,,,465
327,,,461
505,,,461
592,,,457
410,,,454
333,,,465
492,,,448
570,,,443
374,,,423
308,,,434
496,,,440
585,,,454
406,,,459
327,,,456
506,,,452
594,,,462
398,,,452
316,,,450
514,,,457
610,,,469
426,,,478
331,,,472
495,,,449
577,,,441
381,,,429
323,,,455
512,,,457
579,,,448
386,,,444
326,,,453
511,,,449
586,,,458
406,,,464
337,,,462
526,,,465
607,,,478
423,,,481
362,,,488
546,,,486
623,,,495
423,,,483
331,,,464
499,,,446
585,,,453
392,,,444
319,,,451
505,,,451
569,,,438
383,,,439
321,,,448
514,,,453
578,,,450
376,,,440
317,,,445
518,,,449
588,,,457
403,,,468
345,,,472
523,,,458
577,,,454
382,,,448
322,,,444
541,,,468
686,,,540
631,,,658
686,,,776
844,,,790
728,,,670
335,,,467
148,,,287
339,,,245
470,,,316
341,,,399
326,,,453
532,,,461
608,,,474
383,,,454
313,,,453
517,,,446
588,,,446
383,,,451
313,,,454
518,,,450
581,,,441
394,,,458
355,,,485
543,,,475
590,,,465
390,,,461
351,,,471
548,,,472
611,,,487
412,,,485
366,,,487
554,,,480
608,,,487
417,,,488
362,,,482
555,,,484
604,,,483
425,,,492
392,,,505
583,,,510
627,,,513
433,,,506
390,,,504
598,,,520
664,,,541
455,,,530
407,,,532
594,,,519
626,,,505
428,,,506
386,,,505
572,,,494
598,,,483
381,,,465
339,,,457
538,,,453
562,,,446
365,,,451
339,,,452
536,,,447
560,,,448
350,,,441
324,,,437
517,,,426
550,,,436
350,,,438
311,,,426
520,,,432
553,,,434
340,,,428
311,,,430
514,,,425
559,,,436
379,,,459
345,,,462
528,,,450
555,,,442
357,,,435
330,,,441
524,,,444
557,,,445
356,,,436
337,,,447
532,,,448
550,,,441
348,,,435
339,,,445
544,,,451
560,,,452
357,,,450
338,,,445
546,,,450
561,,,452
359,,,454
354,,,459
553,,,454
555,,,451
347,,,448
331,,,437
533,,,433
549,,,441
354,,,450
339,,,445
539,,,443
552,,,445
353,,,446
337,,,443
551,,,455
583,,,469
375,,,467
338,,,455
525,,,439
540,,,427
348,,,433
344,,,451
548,,,458
547,,,442
353,,,445
352,,,452
555,,,458
547,,,449
344,,,444
335,,,433
554,,,449
567,,,462
352,,,456
341,,,448
552,,,447
541,,,435
353,,,456
350,,,451
561,,,456
554,,,452
342,,,448
351,,,451
562,,,453
560,,,458
367,,,472
348,,,450
553,,,451
556,,,452
359,,,457
376,,,474
572,,,470
570,,,473
379,,,477
381,,,475
582,,,482
556,,,464
353,,,457
365,,,456
568,,,461
552,,,460
341,,,450
343,,,438
545,,,436
537,,,440
335,,,442
342,,,438
552,,,443
549,,,449
337,,,445
339,,,441
548,,,440
538,,,435
348,,,452
363,,,459
565,,,458
551,,,455
376,,,477
467,,,540
780,,,638
874,,,752
686,,,795
550,,,692
540,,,503
357,,,302
137,,,227
223,,,273
499,,,373
528,,,443
348,,,458
367,,,449
566,,,454
538,,,454
346,,,457
359,,,444
575,,,461
552,,,462
359,,,470
376,,,464
564,,,455
544,,,457
349,,,456
377,,,461
586,,,473
563,,,475
370,,,481
383,,,471
584,,,473
560,,,471
375,,,483
395,,,481
598,,,488
566,,,480
379,,,488
404,,,487
620,,,506
604,,,514
393,,,507
406,,,499
612,,,498
586,,,492
409,,,518
460,,,542
650,,,536
594,,,519
390,,,510
432,,,506
635,,,511
578,,,505
373,,,500
398,,,475
584,,,463
529,,,456
359,,,476
397,,,465
570,,,457
512,,,448
313,,,430
343,,,412
547,,,429
503,,,429
305,,,423
349,,,423
549,,,428
498,,,423
304,,,425
359,,,431
562,,,436
506,,,432
334,,,455
379,,,447
567,,,446
493,,,429
303,,,428
364,,,426
566,,,437
497,,,433
302,,,432
355,,,420
561,,,429
507,,,437
323,,,450
375,,,442
569,,,442
506,,,439
327,,,451
384,,,448
590,,,463
534,,,465
322,,,451
361,,,436
561,,,434
500,,,425
300,,,428
362,,,434
575,,,442
504,,,431
315,,,446
375,,,444
578,,,445
506,,,438
327,,,456
386,,,449
578,,,449
528,,,462
331,,,457
354,,,427
555,,,435
500,,,425
316,,,433
376,,,445
572,,,451
492,,,426
321,,,442
385,,,444
581,,,456
512,,,452
327,,,452
384,,,444
575,,,449
518,,,455
328,,,453
381,,,444
569,,,444
489,,,428
315,,,439
385,,,441
588,,,458
499,,,443
315,,,447
396,,,448
602,,,463
512,,,458
353,,,487
432,,,479
617,,,482
506,,,464
311,,,453
393,,,437
588,,,445
488,,,443
301,,,444
375,,,422
575,,,432
489,,,438
309,,,448
375,,,428
567,,,431
488,,,432
319,,,449
393,,,445
581,,,451
499,,,446
318,,,446
412,,,460
584,,,454
482,,,439
337,,,463
488,,,510
784,,,619
817,,,742
651,,,781
587,,,682
549,,,492
291,,,285
101,,,211
259,,,259
524,,,374
475,,,439
307,,,445
397,,,433
589,,,446
500,,,458
327,,,467
403,,,447
578,,,442
485,,,441
323,,,455
415,,,455
602,,,466
499,,,457
332,,,467
426,,,465
611,,,473
508,,,467
342,,,478
434,,,473
629,,,489
522,,,480
345,,,486
447,,,486
625,,,482
505,,,468
344,,,486
447,,,480
638,,,493
533,,,497
378,,,517
484,,,514
661,,,520
562,,,529
405,,,540
498,,,529
648,,,518
535,,,508
396,,,522
480,,,505
649,,,524
530,,,505
367,,,496
473,,,497
616,,,489
495,,,476
306,,,442
415,,,439
607,,,463
474,,,447
296,,,446
388,,,420
559,,,413
448,,,414
297,,,437
408,,,436
575,,,434
448,,,422
293,,,433
402,,,426
574,,,433
461,,,435
298,,,437
404,,,429
587,,,445
457,,,431
298,,,440
418,,,440
581,,,438
448,,,428
303,,,444
425,,,439
586,,,443
448,,,435
292,,,435
427,,,437
603,,,453
461,,,449
305,,,455
438,,,448
593,,,443
453,,,444
301,,,449
430,,,437
596,,,447
458,,,449
303,,,450
430,,,440
584,,,439
439,,,431
295,,,439
434,,,438
600,,,452
458,,,451
306,,,453
433,,,441
598,,,451
443,,,435
297,,,444
437,,,442
607,,,456
465,,,455
330,,,476
439,,,449
586,,,447
438,,,431
297,,,435
430,,,434
592,,,451
445,,,439
303,,,444
445,,,447
604,,,458
455,,,452
313,,,459
444,,,446
599,,,453
441,,,440
290,,,438
432,,,432
610,,,455
467,,,459
312,,,466
438,,,448
608,,,455
460,,,447
300,,,453
438,,,450
594,,,441
454,,,442
326,,,470
463,,,468
618,,,473
471,,,466
349,,,488
489,,,487
623,,,485
448,,,457
302,,,446
445,,,436
592,,,446
429,,,438
301,,,446
449,,,438
594,,,448
432,,,442
305,,,450
443,,,432
595,,,449
442,,,449
294,,,440
446,,,440
602,,,452
449,,,451
335,,,478
466,,,461
594,,,456
489,,,486
467,,,572
733,,,687
900,,,756
701,,,741
413,,,596
353,,,392
399,,,283
286,,,266
228,,,326
436,,,421
614,,,483
439,,,449
296,,,437
445,,,436
592,,,445
429,,,437
308,,,454
455,,,444
605,,,455
445,,,454
323,,,471
477,,,464
606,,,459
435,,,450
319,,,465
499,,,475
642,,,489
457,,,481
330,,,485
482,,,460
614,,,462
447,,,467
339,,,485
511,,,484
630,,,484
460,,,486
359,,,500
510,,,482
635,,,495
473,,,497
368,,,503
537,,,508
672,,,531
498,,,523
366,,,511
514,,,495
656,,,510
508,,,519
388,,,529
528,,,519
627,,,494
436,,,456
323,,,461
488,,,464
608,,,468
430,,,456
310,,,453
461,,,438
581,,,440
401,,,426
291,,,432
461,,,432
584,,,440
407,,,435
298,,,441
467,,,436
594,,,448
399,,,431
282,,,432
448,,,417
586,,,433
391,,,421
289,,,441
471,,,435
588,,,435
403,,,438
299,,,448
456,,,422
579,,,432
403,,,434
312,,,452
498,,,459
580,,,442
390,,,435
302,,,438
470,,,424
582,,,444
402,,,443
301,,,438
474,,,433
584,,,445
399,,,438
299,,,437
479,,,439
591,,,449
393,,,433
304,,,445
489,,,444
597,,,453
412,,,454
316,,,458
490,,,447
585,,,445
392,,,437
301,,,440
496,,,446
585,,,444
391,,,442
301,,,441
479,,,428
591,,,448
410,,,454
331,,,468
507,,,460
582,,,449
393,,,444
319,,,449
496,,,442
589,,,457
379,,,435
308,,,442
494,,,435
587,,,450
402,,,456
329,,,462
504,,,449
600,,,465
398,,,452
312,,,450
490,,,438
586,,,446
397,,,446
327,,,462
511,,,458
601,,,464
403,,,455
314,,,453
503,,,450
611,,,466
440,,,483
374,,,509
546,,,499
590,,,464
390,,,447
327,,,452
501,,,443
576,,,452
377,,,437
314,,,439
521,,,454
594,,,463
383,,,451
300,,,437
490,,,425
585,,,443
390,,,448
313,,,453
505,,,446
589,,,448
395,,,452
327,,,464
526,,,465
605,,,466
437,,,491
444,,,559
730,,,639
894,,,738
712,,,775
510,,,683
469,,,479
383,,,297
191,,,227
201,,,278
450,,,378
568,,,456
388,,,447
338,,,448
523,,,458
575,,,462
393,,,459
334,,,448
511,,,445
572,,,455
387,,,452
331,,,448
527,,,458
595,,,471
384,,,455
319,,,449
539,,,463
630,,,487
426,,,495
349,,,493
551,,,484
606,,,464
392,,,462
338,,,478
546,,,472
621,,,478
417,,,487
373,,,509
564,,,491
630,,,496
447,,,514
397,,,523
609,,,535
647,,,522
440,,,517
401,,,523
596,,,516
664,,,539
463,,,538
399,,,525
567,,,500
612,,,493
412,,,481
350,,,471
530,,,464
578,,,460
375,,,444
340,,,456
541,,,466
565,,,450
344,,,428
311,,,428
518,,,430
575,,,451
362,,,447
301,,,429
503,,,421
542,,,415
340,,,421
314,,,435
522,,,436
549,,,429
329,,,419
301,,,421
521,,,426
570,,,443
357,,,448
318,,,444
522,,,432
563,,,437
364,,,450
333,,,454
523,,,439
546,,,430
339,,,425
320,,,433
525,,,435
558,,,442
363,,,449
326,,,440
528,,,443
559,,,443
367,,,449
327,,,441
534,,,451
560,,,444
351,,,436
318,,,435
534,,,446
571,,,449
367,,,453
324,,,446
526,,,442
550,,,429
341,,,427
322,,,439
528,,,438
560,,,441
356,,,444
329,,,446
529,,,441
553,,,437
345,,,433
329,,,442
544,,,450
583,,,464
372,,,463
327,,,449
531,,,443
558,,,437
369,,,453
337,,,453
527,,,445
561,,,445
374,,,452
363,,,471
573,,,487
575,,,469
362,,,455
343,,,451
533,,,441
554,,,447
375,,,461
351,,,453
518,,,437
530,,,434
348,,,428
343,,,434
538,,,452
534,,,443
337,,,428
332,,,424
532,,,436
536,,,440
351,,,445
342,,,437
552,,,453
559,,,458
363,,,461
411,,,501
674,,,551
780,,,652
677,,,754
633,,,743
657,,,616
439,,,409
107,,,232
142,,,206
440,,,290
509,,,400
339,,,458
349,,,450
555,,,437
546,,,443
353,,,465
353,,,454
557,,,448
553,,,450
351,,,456
366,,,465
572,,,464
571,,,469
364,,,469
358,,,461
562,,,459
554,,,451
358,,,459
369,,,467
578,,,473
576,,,475
378,,,479
383,,,482
589,,,486
576,,,478
391,,,492
410,,,501
607,,,503
589,,,499
394,,,498
413,,,499
627,,,517
590,,,503
391,,,504
415,,,499
621,,,505
608,,,520
410,,,522
425,,,512
621,,,510
590,,,504
379,,,494
393,,,482
614,,,496
575,,,484
337,,,464
343,,,443
555,,,431
529,,,429
324,,,445
345,,,442
547,,,428
517,,,423
319,,,435
334,,,426
552,,,435
520,,,427
318,,,434
341,,,431
557,,,439
526,,,435
326,,,443
346,,,435
540,,,425
517,,,429
323,,,435
347,,,433
548,,,435
518,,,431
327,,,437
349,,,433
552,,,441
531,,,444
347,,,453
354,,,440
556,,,450
529,,,442
334,,,440
359,,,444
561,,,452
534,,,447
337,,,447
356,,,443
552,,,442
513,,,428
332,,,441
371,,,449
585,,,468
525,,,447
330,,,451
349,,,428
548,,,429
521,,,439
332,,,446
361,,,441
574,,,456
528,,,446
332,,,450
364,,,445
563,,,445
510,,,431
327,,,444
377,,,450
594,,,469
519,,,448
308,,,440
356,,,428
579,,,442
522,,,446
331,,,464
374,,,448
572,,,441
522,,,448
329,,,457
371,,,445
576,,,448
540,,,460
346,,,467
399,,,475
599,,,475
530,,,457
343,,,467
383,,,455
570,,,449
515,,,445
341,,,458
383,,,449
569,,,453
497,,,435
307,,,426
375,,,434
576,,,450
507,,,446
323,,,449
377,,,437
583,,,454
515,,,451
319,,,449
382,,,446
592,,,457
516,,,450
369,,,495
511,,,551
773,,,616
783,,,707
622,,,750
564,,,655
552,,,489
320,,,309
124,,,235
260,,,268
547,,,396
513,,,465
333,,,471
385,,,438
583,,,447
511,,,452
316,,,452
389,,,450
589,,,450
510,,,447
330,,,465
397,,,458
591,,,456
503,,,443
324,,,458
413,,,467
599,,,462
524,,,469
368,,,496
431,,,481
604,,,479
516,,,469
347,,,471
428,,,472
612,,,484
527,,,481
360,,,486
442,,,484
626,,,497
541,,,496
363,,,493
438,,,484
633,,,500
556,,,504
388,,,517
476,,,523
664,,,530
553,,,509
380,,,517
476,,,516
654,,,515
531,,,496
341,,,487
414,,,455
605,,,461
504,,,461
318,,,462
393,,,440
580,,,439
480,,,433
306,,,445
390,,,435
575,,,437
479,,,433
328,,,459
410,,,450
582,,,453
463,,,428
303,,,434
390,,,423
578,,,444
489,,,449
305,,,438
379,,,424
568,,,434
469,,,422
308,,,439
410,,,450
585,,,451
461,,,426
299,,,435
402,,,432
585,,,444
490,,,455
322,,,460
413,,,448
580,,,444
471,,,437
308,,,443
407,,,439
585,,,448
471,,,438
318,,,453
402,,,434
576,,,442
463,,,431
304,,,437
428,,,452
596,,,458
476,,,453
311,,,450
415,,,438
589,,,448
482,,,455
315,,,454
402,,,433
584,,,445
472,,,437
313,,,449
417,,,449
596,,,457
476,,,444
314,,,453
420,,,449
587,,,447
473,,,444
319,,,456
445,,,467
609,,,468
463,,,446
303,,,449
407,,,426
594,,,446
477,,,451
319,,,463
432,,,456
596,,,453
474,,,451
329,,,467
442,,,460
615,,,474
491,,,471
340,,,479
447,,,467
611,,,473
501,,,478
327,,,465
432,,,458
583,,,448
452,,,430
300,,,435
416,,,435
588,,,449
460,,,440
307,,,446
428,,,445
595,,,453
465,,,446
311,,,453
428,,,446
592,,,449
460,,,442
319,,,459
449,,,461
626,,,480
521,,,500
447,,,570
682,,,662
898,,,736
712,,,723
400,,,600
324,,,389
391,,,262
293,,,250
218,,,325
405,,,412
604,,,468
470,,,454
312,,,450
445,,,458
603,,,461
469,,,457
328,,,467
440,,,451
597,,,458
454,,,445
316,,,454
443,,,449
601,,,460
462,,,455
329,,,467
456,,,459
614,,,473
468,,,464
329,,,470
463,,,465
635,,,488
490,,,484
347,,,493
475,,,480
626,,,480
481,,,476
358,,,499
483,,,484
626,,,487
492,,,489
384,,,514
530,,,523
664,,,531
498,,,509
370,,,506
510,,,498
661,,,521
518,,,524
381,,,520
502,,,500
638,,,502
462,,,469
330,,,472
467,,,460
607,,,464
445,,,453
308,,,453
443,,,437
584,,,440
422,,,429
293,,,437
443,,,433
597,,,448
434,,,441
302,,,451
444,,,436
583,,,435
423,,,431
288,,,435
436,,,427
568,,,422
415,,,424
303,,,443
444,,,431
575,,,437
410,,,424
293,,,430
460,,,440
604,,,460
425,,,445
299,,,446
454,,,434
591,,,443
442,,,456
315,,,459
443,,,434
586,,,444
420,,,427
298,,,439
455,,,444
586,,,443
412,,,426
297,,,440
461,,,442
594,,,448
427,,,445
312,,,455
467,,,447
596,,,452
442,,,459
332,,,470
479,,,460
582,,,449
413,,,437
311,,,442
455,,,430
581,,,449
410,,,434
306,,,438
473,,,444
586,,,450
415,,,445
310,,,446
459,,,430
587,,,449
436,,,458
337,,,469
488,,,463
595,,,463
408,,,438
306,,,441
468,,,436
585,,,447
416,,,445
309,,,446
469,,,440
593,,,453
417,,,444
322,,,460
485,,,455
592,,,454
425,,,455
336,,,469
501,,,467
623,,,485
443,,,475
335,,,475
505,,,472
602,,,463
427,,,462
325,,,463
480,,,447
589,,,453
406,,,440
306,,,442
467,,,433
574,,,438
404,,,436
325,,,456
496,,,457
581,,,451
412,,,452
333,,,458
490,,,449
567,,,445
391,,,436
316,,,437
504,,,452
595,,,467
419,,,469
408,,,521
703,,,614
892,,,729
740,,,793
524,,,701
485,,,503
421,,,327
199,,,233
163,,,263
425,,,359
585,,,445
423,,,467
319,,,457
474,,,437
569,,,434
413,,,445
330,,,459
500,,,464
590,,,460
412,,,450
329,,,458
507,,,464
599,,,466
418,,,461
352,,,480
519,,,471
592,,,466
417,,,466
332,,,458
521,,,469
620,,,486
430,,,480
346,,,481
527,,,476
616,,,479
437,,,485
365,,,498
543,,,492
615,,,484
444,,,494
384,,,508
566,,,510
660,,,531
490,,,539
409,,,535
572,,,526
635,,,514
443,,,495
378,,,500
555,,,500
623,,,501
421,,,480
351,,,477
517,,,460
587,,,463
405,,,461
330,,,455
504,,,449
572,,,448
384,,,440
331,,,452
523,,,460
571,,,450
366,,,436
298,,,423
494,,,424
554,,,426
359,,,429
305,,,431
485,,,416
556,,,429
371,,,435
315,,,439
500,,,435
559,,,435
367,,,432
321,,,441
523,,,451
578,,,454
375,,,448
311,,,438
507,,,435
575,,,444
373,,,443
313,,,444
515,,,443
562,,,431
359,,,433
308,,,437
506,,,431
568,,,437
373,,,444
326,,,452
535,,,459
588,,,459
377,,,453
310,,,442
509,,,435
582,,,447
377,,,447
328,,,460
521,,,450
560,,,433
359,,,432
319,,,442
528,,,450
573,,,448
377,,,453
318,,,442
519,,,444
564,,,440
377,,,450
345,,,462
544,,,466
583,,,465
366,,,448
329,,,448
520,,,438
557,,,440
361,,,442
327,,,441
530,,,445
572,,,455
373,,,456
327,,,445
513,,,434
559,,,441
366,,,442
328,,,443
539,,,458
586,,,465
382,,,461
339,,,460
542,,,462
575,,,454
391,,,468
347,,,464
539,,,462
583,,,465
384,,,460
363,,,477
556,,,475
567,,,457
363,,,449
326,,,438
534,,,446
570,,,454
364,,,451
331,,,448
538,,,449
563,,,445
369,,,456
333,,,449
527,,,442
558,,,442
355,,,440
314,,,431
513,,,429
547,,,429
355,,,435
346,,,456
546,,,459
586,,,472
460,,,529
561,,,633
859,,,740
874,,,775
571,,,705
335,,,500
370,,,321
352,,,239
217,,,268
273,,,355
532,,,443
558,,,457
351,,,441
322,,,427
534,,,440
554,,,444
356,,,449
337,,,446
553,,,456
572,,,458
367,,,463
348,,,461
566,,,467
585,,,468
388,,,484
358,,,474
554,,,461
558,,,447
362,,,455
356,,,462
567,,,469
586,,,476
386,,,481
378,,,484
582,,,485
592,,,486
387,,,484
389,,,492
606,,,502
613,,,506
406,,,509
400,,,506
608,,,504
612,,,505
410,,,512
426,,,526
625,,,519
602,,,507
400,,,509
391,,,487
594,,,487
586,,,490
386,,,491
379,,,476
573,,,471
562,,,467
357,,,460
347,,,445
551,,,450
544,,,445
329,,,433
323,,,425
528,,,424
526,,,423
340,,,439
329,,,429
525,,,428
524,,,424
342,,,435
345,,,440
539,,,444
516,,,425
325,,,423
343,,,430
548,,,443
540,,,448
339,,,444
345,,,437
552,,,444
526,,,434
337,,,444
355,,,443
557,,,447
537,,,448
329,,,441
344,,,435
550,,,436
530,,,437
342,,,452
368,,,456
564,,,452
537,,,450
338,,,450
348,,,436
536,,,428
509,,,424
323,,,429
363,,,441
561,,,449
530,,,451
337,,,449
359,,,439
559,,,446
535,,,452
344,,,454
367,,,449
576,,,462
534,,,450
329,,,446
351,,,437
553,,,436
525,,,437
327,,,442
350,,,438
563,,,446
526,,,437
335,,,450
365,,,450
565,,,449
536,,,450
359,,,469
373,,,456
556,,,450
522,,,442
331,,,437
365,,,443
564,,,454
523,,,444
340,,,449
385,,,458
597,,,479
551,,,474
359,,,477
388,,,465
591,,,472
533,,,457
321,,,447
363,,,441
562,,,435
517,,,438
330,,,453
375,,,450
568,,,445
505,,,434
311,,,436
357,,,427
579,,,448
538,,,460
317,,,448
353,,,436
559,,,430
516,,,431
331,,,454
380,,,458
583,,,458
534,,,455
384,,,497
527,,,574
850,,,690
859,,,769
609,,,758
448,,,586
448,,,387
318,,,250
163,,,244
253,,,302
511,,,398
513,,,436
340,,,442
383,,,454
586,,,476
522,,,452
322,,,439
368,,,439
588,,,462
536,,,459
335,,,463
371,,,449
576,,,447
519,,,441
356,,,478
419,,,486
598,,,475
530,,,468
344,,,467
402,,,462
603,,,476
545,,,482
367,,,490
423,,,483
604,,,481
548,,,488
371,,,491
442,,,497
640,,,514
556,,,501
384,,,510
453,,,504
652,,,521
585,,,529
409,,,536
465,,,521
648,,,522
570,,,515
382,,,509
439,,,497
634,,,506
549,,,491
364,,,494
428,,,486
609,,,480
503,,,452
323,,,457
386,,,438
576,,,443
487,,,435
314,,,445
380,,,431
565,,,435
480,,,429
302,,,432
376,,,426
561,,,430
475,,,425
307,,,436
383,,,430
564,,,434
482,,,434
308,,,436
380,,,428
575,,,445
487,,,436
307,,,437
386,,,435
574,,,441
488,,,437
312,,,443
383,,,434
579,,,446
491,,,438
317,,,449
399,,,448
588,,,453
487,,,439
308,,,444
403,,,447
590,,,450
490,,,446
319,,,457
405,,,446
581,,,443
482,,,442
313,,,449
391,,,431
579,,,443
487,,,444
320,,,452
409,,,449
587,,,454
479,,,440
301,,,437
396,,,434
598,,,455
484,,,444
310,,,454
399,,,438
578,,,435
485,,,443
318,,,455
400,,,441
579,,,444
476,,,435
311,,,445
404,,,442
599,,,460
487,,,447
321,,,459
406,,,445
596,,,457
503,,,459
343,,,476
435,,,475
621,,,485
507,,,468
323,,,462
400,,,444
583,,,446
484,,,439
313,,,448
400,,,443
579,,,444
473,,,431
312,,,445
398,,,437
581,,,447
476,,,437
318,,,450
418,,,451
590,,,456
462,,,433
293,,,432
394,,,423
590,,,445
479,,,444
325,,,466
457,,,481
712,,,548
708,,,644
647,,,762
721,,,760
724,,,643
395,,,436
99,,,262
214,,,211
485,,,303
423,,,386
287,,,443
420,,,445
595,,,436
467,,,441
316,,,468
427,,,451
597,,,448
470,,,446
316,,,461
437,,,457
604,,,459
494,,,470
329,,,470
436,,,461
623,,,480
485,,,459
355,,,493
471,,,489
622,,,486
487,,,473
337,,,474
470,,,479
629,,,488
495,,,485
363,,,499
484,,,490
649,,,510
524,,,513
375,,,512
488,,,500
652,,,513
539,,,521
399,,,532
504,,,522
662,,,530
526,,,508
390,,,521
506,,,520
657,,,525
515,,,504
368,,,504
486,,,497
624,,,490
471,,,466
323,,,462
442,,,448
602,,,461
461,,,454
312,,,455
431,,,440
580,,,439
444,,,435
301,,,441
422,,,431
570,,,431
424,,,417
284,,,423
417,,,421
582,,,438
434,,,428
285,,,431
415,,,421
578,,,430
441,,,431
299,,,444
425,,,434
579,,,434
441,,,431
303,,,444
430,,,438
577,,,437
439,,,432
311,,,447
444,,,446
578,,,443
443,,,442
303,,,437
440,,,440
595,,,456
440,,,440
305,,,445
441,,,439
584,,,443
450,,,449
310,,,448
454,,,452
599,,,458
462,,,461
305,,,448
424,,,432
569,,,429
433,,,424
314,,,448
445,,,448
589,,,453
442,,,440
304,,,441
445,,,444
583,,,444
442,,,443
315,,,451
457,,,452
601,,,461
442,,,448
312,,,453
462,,,452
593,,,451
418,,,433
286,,,432
443,,,426
587,,,437
439,,,450
316,,,460
466,,,453
601,,,456
431,,,446
311,,,455
468,,,450
611,,,464
447,,,462
343,,,484
496,,,476
619,,,479
446,,,468
316,,,459
455,,,437
577,,,438
416,,,434
306,,,442
452,,,432
577,,,441
417,,,435
297,,,433
460,,,439
592,,,451
419,,,440
307,,,448
471,,,446
593,,,450
408,,,436
313,,,454
478,,,445
588,,,448
409,,,443
330,,,464
563,,,509
783,,,612
740,,,740
636,,,773
665,,,684
590,,,517
249,,,312
96,,,225
321,,,260
538,,,372
438,,,456
346,,,489
485,,,466
590,,,453
404,,,429
291,,,432
467,,,439
596,,,449
431,,,454
321,,,464
480,,,455
593,,,452
419,,,445
324,,,461
499,,,466
607,,,467
422,,,457
344,,,480
517,,,475
619,,,482
447,,,487
359,,,492
516,,,476
617,,,485
430,,,471
345,,,476
518,,,474
630,,,494
458,,,497
368,,,501
543,,,502
644,,,509
465,,,505
377,,,510
553,,,510
659,,,522
492,,,529
384,,,520
549,,,515
622,,,492
452,,,490
381,,,505
537,,,496
604,,,485
399,,,450
297,,,427
480,,,430
582,,,446
407,,,452
313,,,448
472,,,431
566,,,433
390,,,430
300,,,432
468,,,427
578,,,443
414,,,449
314,,,447
472,,,439
576,,,443
392,,,425
299,,,433
472,,,435
558,,,424
373,,,414
303,,,433
489,,,439
579,,,445
381,,,434
310,,,444
483,,,427
567,,,434
391,,,444
324,,,451
496,,,441
580,,,452
403,,,454
318,,,446
488,,,439
565,,,438
388,,,436
331,,,453
509,,,456
569,,,449
387,,,443
318,,,437
489,,,433
565,,,445
387,,,440
326,,,444
503,,,447
572,,,452
380,,,438
319,,,440
517,,,452
581,,,455
383,,,449
310,,,440
492,,,428
576,,,442
386,,,445
319,,,451
506,,,446
576,,,443
380,,,441
311,,,444
504,,,442
586,,,449
393,,,452
327,,,461
513,,,452
593,,,457
410,,,466
324,,,459
504,,,451
572,,,440
368,,,425
309,,,440
499,,,438
579,,,445
390,,,447
325,,,455
511,,,452
590,,,458
405,,,461
357,,,482
547,,,485
611,,,485
410,,,474
342,,,470
524,,,461
579,,,454
390,,,454
329,,,451
494,,,433
548,,,432
362,,,424
315,,,428
504,,,437
565,,,448
380,,,445
329,,,444
511,,,445
560,,,445
372,,,439
336,,,448
531,,,457
576,,,461
365,,,443
317,,,437
541,,,456
665,,,522
574,,,620
639,,,733
852,,,772
768,,,689
369,,,514
144,,,308
309,,,220
431,,,265
317,,,369
326,,,453
532,,,462
570,,,444
368,,,440
331,,,453
529,,,453
563,,,443
349,,,429
320,,,438
551,,,461
594,,,469
381,,,470
334,,,461
528,,,442
576,,,449
383,,,463
350,,,470
560,,,475
592,,,471
393,,,477
364,,,480
555,,,471
591,,,476
415,,,492
376,,,486
579,,,499
604,,,493
401,,,483
377,,,487
579,,,493
619,,,505
427,,,509
400,,,511
600,,,515
620,,,509
444,,,526
409,,,516
597,,,516
627,,,518
414,,,498
386,,,498
588,,,502
600,,,489
377,,,470
342,,,460
537,,,447
561,,,444
356,,,446
328,,,445
520,,,432
539,,,425
350,,,436
327,,,437
522,,,435
545,,,435
348,,,434
325,,,434
530,,,441
551,,,440
342,,,432
307,,,421
511,,,421
535,,,419
350,,,436
337,,,446
527,,,439
536,,,430
335,,,425
329,,,432
543,,,446
547,,,441
334,,,434
321,,,428
536,,,433
555,,,443
354,,,453
326,,,439
536,,,438
538,,,426
343,,,440
347,,,452
540,,,441
532,,,431
339,,,438
332,,,431
544,,,443
546,,,445
344,,,444
335,,,436
547,,,445
556,,,451
355,,,454
339,,,445
541,,,444
553,,,446
374,,,464
349,,,453
532,,,447
523,,,425
345,,,430
340,,,433
544,,,453
549,,,452
346,,,439
344,,,442
550,,,452
529,,,433
343,,,443
359,,,449
570,,,462
560,,,466
358,,,466
339,,,438
537,,,434
535,,,435
348,,,447
347,,,444
545,,,445
544,,,446
353,,,450
355,,,451
563,,,462
551,,,453
361,,,461
363,,,459
559,,,458
540,,,446
358,,,458
371,,,460
574,,,469
564,,,472
372,,,475
387,,,476
582,,,477
557,,,469
351,,,460
365,,,455
567,,,457
529,,,441
332,,,444
359,,,444
561,,,445
534,,,448
341,,,455
360,,,444
557,,,444
528,,,444
342,,,452
351,,,435
553,,,444
523,,,438
348,,,453
366,,,447
556,,,451
530,,,448
381,,,478
488,,,544
800,,,659
864,,,759
679,,,793
539,,,670
522,,,484
343,,,295
149,,,233
237,,,278
515,,,393
522,,,446
355,,,464
369,,,444
565,,,455
522,,,446
327,,,441
360,,,437
567,,,447
530,,,449
345,,,463
382,,,460
584,,,462
542,,,462
358,,,477
382,,,462
588,,,469
550,,,467
365,,,481
406,,,485
599,,,482
547,,,470
351,,,470
395,,,470
604,,,481
554,,,477
371,,,491
415,,,488
622,,,499
567,,,492
392,,,511
453,,,520
658,,,532
588,,,521
391,,,520
447,,,513
649,,,518
575,,,510
401,,,530
445,,,508
624,,,500
553,,,494
374,,,497
414,,,475
600,,,480
536,,,475
325,,,450
374,,,442
581,,,453
515,,,444
325,,,452
374,,,445
567,,,441
516,,,443
328,,,451
354,,,430
543,,,425
484,,,410
307,,,423
373,,,439
576,,,452
502,,,436
315,,,440
379,,,441
584,,,454
516,,,452
325,,,455
386,,,449
576,,,446
509,,,446
323,,,451
382,,,443
581,,,451
499,,,439
323,,,452
382,,,439
578,,,448
530,,,466
366,,,486
415,,,475
568,,,456
454,,,409
287,,,407
394,,,429
616,,,477
532,,,486
313,,,459
362,,,422
591,,,443
550,,,474
393,,,523
403,,,480
565,,,452
518,,,444
378,,,479
447,,,507
566,,,471
440,,,404
271,,,381
359,,,391
592,,,462
513,,,467
299,,,437
364,,,420
595,,,449
565,,,490
352,,,491
363,,,451
575,,,444
519,,,429
331,,,457
375,,,461
576,,,450
504,,,422
291,,,422
372,,,449
605,,,462
552,,,468
316,,,461
334,,,429
584,,,440
528,,,429
301,,,445
368,,,462
643,,,486
564,,,466
315,,,477
362,,,462
621,,,459
574,,,469
329,,,486
389,,,490
623,,,467
528,,,437
302,,,460
377,,,460
617,,,457
551,,,467
293,,,454
335,,,426
601,,,441
536,,,440
298,,,454
351,,,446
580,,,429
511,,,421
297,,,442
396,,,471
653,,,496
518,,,450
266,,,437
342,,,413
640,,,459
662,,,556
616,,,732
802,,,841
902,,,782
599,,,623
139,,,357
125,,,188
451,,,246
472,,,363
276,,,441
349,,,446
609,,,443
523,,,425
284,,,447
374,,,465
653,,,481
602,,,499
354,,,517
377,,,486
591,,,445
515,,,417
327,,,463
424,,,502
641,,,500
549,,,478
320,,,465
388,,,458
632,,,483
573,,,495
384,,,522
442,,,513
636,,,504
524,,,465
318,,,457
429,,,479
659,,,507
546,,,495
351,,,504
455,,,500
681,,,521
589,,,537
398,,,552
486,,,535
688,,,536
567,,,522
382,,,534
467,,,511
649,,,503
512,,,477
339,,,487
466,,,493
665,,,510
529,,,503
327,,,488
434,,,464
622,,,464
473,,,447
272,,,436
405,,,431
617,,,447
469,,,441
265,,,438
376,,,410
588,,,416
464,,,425
283,,,448
403,,,438
592,,,430
471,,,435
288,,,445
387,,,425
604,,,447
484,,,440
287,,,442
396,,,440
600,,,444
465,,,423
277,,,433
384,,,425
592,,,434
476,,,432
295,,,448
417,,,455
625,,,466
487,,,449
295,,,456
404,,,442
600,,,440
471,,,434
294,,,451
423,,,454
616,,,457
463,,,436
295,,,453
422,,,444
602,,,445
453,,,435
293,,,448
418,,,432
605,,,449
470,,,453
301,,,454
424,,,441
614,,,459
463,,,445
292,,,448
422,,,439
615,,,455
455,,,438
279,,,441
417,,,433
619,,,452
467,,,447
293,,,459
419,,,439
600,,,436
467,,,444
318,,,472
433,,,453
592,,,445
451,,,434
282,,,429
433,,,445
609,,,456
465,,,452
292,,,445
421,,,435
613,,,456
470,,,451
304,,,459
438,,,455
622,,,465
474,,,456
334,,,485
460,,,473
606,,,460
427,,,425
283,,,433
464,,,454
636,,,474
462,,,472
307,,,471
442,,,436
606,,,445
442,,,446
297,,,455
444,,,439
607,,,449
447,,,449
269,,,430
418,,,421
595,,,432
449,,,439
287,,,446
427,,,438
592,,,435
431,,,421
283,,,437
448,,,450
635,,,472
447,,,445
290,,,456
493,,,483
756,,,561
733,,,693
637,,,783
676,,,716
640,,,554
277,,,327
56,,,211
284,,,241
546,,,353
428,,,431
303,,,474
448,,,442
610,,,443
448,,,451
289,,,454
439,,,439
592,,,430
434,,,433
302,,,456
460,,,456
615,,,460
450,,,453
332,,,479
478,,,469
608,,,465
435,,,449
307,,,450
475,,,456
641,,,489
455,,,471
327,,,480
502,,,481
642,,,486
469,,,489
326,,,483
489,,,471
648,,,488
477,,,490
356,,,511
514,,,498
640,,,489
474,,,491
372,,,515
555,,,527
669,,,524
466,,,501
343,,,493
519,,,484
673,,,516
480,,,510
332,,,494
492,,,470
613,,,457
409,,,437
302,,,457
490,,,456
608,,,452
401,,,439
285,,,442
460,,,423
582,,,427
393,,,429
290,,,440
463,,,426
584,,,435
406,,,439
289,,,436
456,,,425
584,,,437
400,,,428
272,,,421
460,,,431
605,,,448
410,,,436
280,,,439
455,,,430
588,,,429
388,,,415
287,,,443
476,,,441
600,,,443
409,,,444
294,,,448
483,,,445
608,,,451
410,,,447
295,,,451
475,,,438
586,,,433
399,,,436
305,,,452
484,,,443
587,,,443
379,,,425
296,,,438
488,,,435
601,,,455
391,,,444
300,,,447
500,,,444
624,,,470
422,,,472
319,,,472
487,,,443
584,,,438
374,,,422
287,,,432
504,,,448
607,,,456
390,,,447
294,,,446
493,,,435
608,,,452
391,,,446
303,,,457
499,,,442
608,,,453
401,,,455
317,,,467
508,,,453
610,,,461
400,,,454
310,,,458
491,,,439
582,,,438
381,,,433
303,,,443
508,,,450
601,,,457
384,,,443
302,,,447
511,,,449
623,,,471
406,,,464
326,,,477
536,,,474
630,,,477
421,,,481
307,,,463
515,,,459
588,,,436
365,,,427
280,,,432
479,,,417
568,,,418
367,,,426
292,,,436
501,,,437
586,,,440
375,,,438
300,,,443
518,,,450
600,,,454
376,,,446
293,,,441
500,,,431
600,,,448
394,,,457
320,,,467
543,,,475
686,,,524
609,,,636
673,,,774
866,,,803
776,,,702
368,,,505
162,,,317
340,,,250
475,,,314
336,,,393
321,,,452
539,,,467
598,,,464
371,,,447
295,,,434
526,,,448
591,,,447
367,,,445
313,,,455
529,,,448
601,,,456
392,,,468
327,,,469
538,,,462
598,,,457
382,,,458
325,,,464
549,,,469
624,,,479
400,,,478
340,,,483
562,,,482
620,,,477
382,,,466
328,,,471
558,,,470
627,,,480
411,,,494
356,,,499
578,,,494
642,,,497
430,,,509
382,,,520
603,,,521
663,,,524
430,,,513
379,,,517
594,,,510
634,,,499
419,,,504
378,,,509
570,,,488
591,,,470
371,,,458
338,,,457
545,,,456
574,,,457
340,,,434
303,,,424
531,,,434
569,,,443
342,,,438
300,,,428
535,,,437
591,,,455
344,,,441
284,,,427
517,,,422
564,,,419
329,,,423
286,,,429
523,,,426
557,,,415
347,,,440
318,,,451
531,,,437
550,,,423
331,,,426
311,,,433
537,,,438
568,,,444
350,,,446
311,,,435
527,,,433
552,,,429
333,,,427
316,,,435
535,,,437
562,,,442
359,,,453
342,,,456
550,,,455
570,,,457
376,,,466
349,,,458
553,,,464
566,,,458
336,,,431
328,,,438
552,,,451
568,,,454
343,,,446
322,,,438
550,,,445
553,,,436
331,,,438
315,,,432
545,,,436
561,,,440
338,,,445
327,,,446
572,,,459
600,,,473
342,,,456
303,,,440
566,,,451
595,,,450
352,,,464
313,,,459
546,,,438
565,,,423
345,,,448
343,,,473
568,,,462
576,,,451
357,,,461
351,,,469
575,,,469
590,,,472
393,,,492
391,,,499
597,,,497
588,,,486
359,,,464
360,,,463
581,,,472
580,,,476
367,,,474
381,,,480
611,,,497
600,,,498
367,,,484
362,,,468
582,,,466
574,,,468
352,,,468
342,,,451
548,,,437
532,,,427
320,,,431
319,,,423
551,,,437
557,,,447
350,,,458
336,,,446
551,,,446
542,,,433
338,,,442
343,,,448
580,,,469
600,,,485
360,,,470
391,,,502
709,,,572
828,,,673
688,,,778
605,,,749
615,,,578
401,,,350
104,,,215
177,,,240
488,,,341
516,,,417
327,,,455
359,,,449
571,,,442
545,,,454
322,,,451
325,,,422
569,,,439
562,,,455
334,,,460
365,,,469
587,,,459
560,,,456
339,,,465
365,,,466
612,,,480
560,,,459
346,,,479
387,,,482
609,,,474
585,,,488
341,,,475
370,,,469
603,,,469
567,,,467
360,,,489
384,,,480
624,,,493
590,,,491
371,,,500
411,,,505
628,,,498
603,,,509
400,,,522
412,,,505
635,,,515
599,,,505
395,,,513
445,,,531
666,,,542
570,,,494
347,,,484
397,,,473
605,,,468
532,,,461
320,,,460
361,,,434
574,,,437
529,,,452
324,,,457
366,,,443
571,,,441
505,,,431
287,,,420
355,,,427
593,,,450
520,,,444
312,,,455
345,,,425
562,,,424
501,,,421
294,,,430
342,,,421
573,,,435
519,,,435
300,,,437
363,,,444
581,,,441
511,,,431
300,,,439
350,,,429
572,,,432
505,,,425
310,,,445
364,,,439
559,,,428
483,,,414
273,,,406
342,,,409
581,,,439
504,,,431
299,,,441
359,,,430
589,,,444
506,,,434
291,,,437
348,,,421
576,,,429
519,,,440
320,,,460
368,,,446
594,,,454
518,,,440
303,,,444
366,,,443
590,,,447
512,,,435
311,,,452
387,,,457
606,,,462
512,,,445
309,,,454
390,,,453
598,,,451
512,,,451
308,,,454
391,,,449
615,,,464
526,,,464
315,,,465
401,,,462
620,,,467
516,,,457
319,,,471
400,,,456
620,,,467
528,,,468
319,,,471
381,,,445
600,,,451
514,,,447
307,,,453
376,,,444
588,,,444
490,,,424
294,,,437
382,,,442
601,,,454
496,,,437
295,,,443
383,,,439
583,,,435
480,,,427
291,,,437
387,,,435
604,,,453
496,,,446
331,,,476
485,,,515
794,,,614
802,,,724
634,,,779
586,,,680
564,,,491
278,,,276
82,,,208
261,,,254
554,,,385
489,,,456
323,,,475
410,,,443
595,,,446
473,,,441
285,,,436
409,,,439
612,,,454
492,,,457
309,,,465
410,,,446
616,,,458
522,,,477
327,,,480
405,,,456
600,,,452
489,,,438
318,,,462
433,,,476
641,,,491
512,,,469
321,,,474
434,,,474
624,,,469
502,,,463
343,,,492
470,,,498
656,,,503
536,,,507
371,,,519
470,,,498
665,,,517
538,,,508
359,,,507
470,,,500
664,,,513
533,,,502
359,,,510
473,,,502
651,,,500
503,,,479
336,,,489
458,,,480
634,,,482
494,,,474
293,,,451
391,,,421
583,,,428
467,,,432
293,,,444
409,,,442
589,,,438
455,,,424
291,,,440
405,,,433
585,,,436
447,,,421
277,,,426
401,,,424
586,,,434
454,,,429
295,,,443
405,,,428
582,,,435
459,,,434
311,,,452
427,,,447
581,,,443
438,,,424
289,,,427
415,,,425
599,,,454
463,,,449
289,,,437
415,,,431
596,,,444
456,,,438
299,,,449
424,,,440
588,,,439
459,,,442
307,,,452
434,,,448
600,,,454
464,,,449
310,,,454
425,,,440
577,,,437
442,,,429
300,,,437
441,,,447
595,,,454
443,,,440
297,,,440
444,,,443
600,,,452
438,,,441
297,,,446
451,,,443
608,,,455
436,,,445
294,,,449
452,,,441
607,,,449
451,,,459
309,,,463
438,,,433
591,,,440
446,,,446
323,,,466
466,,,461
619,,,474
450,,,456
320,,,465
462,,,455
613,,,467
449,,,455
316,,,461
455,,,449
590,,,448
428,,,436
289,,,433
428,,,422
576,,,432
423,,,427
293,,,435
431,,,426
578,,,435
424,,,427
299,,,439
452,,,444
594,,,450
441,,,448
312,,,454
454,,,446
645,,,492
587,,,565
597,,,699
805,,,778
850,,,744
496,,,577
161,,,356
233,,,223
425,,,243
340,,,322
276,,,420
460,,,451
602,,,450
433,,,442
305,,,455
455,,,444
598,,,449
449,,,455
320,,,464
473,,,465
589,,,449
433,,,445
329,,,463
486,,,466
607,,,472
427,,,451
323,,,458
484,,,455
625,,,484
476,,,497
335,,,476
481,,,465
613,,,472
463,,,474
366,,,499
517,,,500
646,,,511
457,,,478
348,,,487
520,,,493
649,,,504
473,,,499
368,,,512
543,,,511
664,,,517
485,,,517
382,,,527
542,,,509
650,,,508
470,,,504
363,,,504
532,,,497
671,,,524
462,,,497
332,,,487
469,,,445
585,,,438
408,,,432
293,,,439
471,,,444
572,,,427
390,,,421
294,,,435
467,,,432
587,,,444
392,,,428
288,,,432
467,,,429
587,,,440
423,,,455
315,,,457
471,,,441
582,,,442
408,,,437
301,,,440
457,,,429
566,,,430
391,,,420
299,,,432
481,,,445
579,,,443
400,,,437
317,,,449
489,,,447
584,,,451
395,,,439
315,,,447
490,,,442
599,,,463
409,,,455
312,,,449
489,,,444
574,,,438
385,,,432
304,,,439
490,,,439
575,,,439
401,,,449
319,,,450
490,,,442
582,,,450
400,,,446
318,,,448
497,,,449
586,,,454
406,,,452
314,,,446
495,,,448
583,,,450
402,,,447
319,,,450
489,,,443
579,,,447
395,,,440
305,,,438
492,,,444
584,,,447
413,,,457
327,,,461
510,,,463
601,,,465
405,,,453
337,,,470
538,,,481
625,,,487
430,,,487
354,,,491
521,,,467
569,,,442
363,,,427
302,,,430
498,,,429
564,,,435
370,,,439
315,,,441
512,,,440
579,,,450
381,,,451
318,,,446
508,,,438
578,,,449
381,,,448
319,,,447
505,,,439
586,,,455
385,,,448
338,,,465
587,,,507
780,,,614
708,,,733
675,,,801
724,,,712
567,,,514
215,,,315
124,,,230
368,,,268
519,,,377
384,,,446
342,,,466
519,,,454
566,,,445
367,,,435
321,,,442
518,,,445
577,,,452
380,,,451
329,,,453
529,,,455
593,,,464
384,,,457
338,,,466
552,,,473
612,,,479
398,,,476
340,,,475
556,,,475
607,,,470
389,,,471
332,,,470
540,,,458
606,,,466
409,,,485
368,,,500
564,,,487
610,,,481
425,,,497
392,,,512
601,,,523
639,,,519
426,,,507
380,,,501
590,,,507
649,,,523
445,,,524
395,,,520
596,,,517
623,,,501
404,,,488
345,,,472
555,,,473
582,,,458
369,,,455
325,,,449
540,,,453
575,,,450
356,,,444
322,,,447
530,,,440
552,,,430
330,,,424
269,,,397
508,,,414
581,,,440
384,,,466
323,,,461
506,,,432
545,,,415
342,,,416
310,,,434
520,,,441
550,,,428
357,,,436
322,,,439
512,,,433
547,,,432
367,,,442
351,,,457
547,,,467
561,,,458
354,,,440
332,,,435
534,,,445
550,,,446
338,,,431
335,,,438
562,,,459
563,,,456
349,,,455
336,,,444
531,,,427
554,,,445
357,,,455
334,,,442
534,,,438
548,,,440
367,,,457
353,,,455
547,,,457
557,,,455
351,,,442
338,,,441
551,,,455
559,,,452
346,,,444
335,,,443
542,,,442
556,,,446
362,,,457
347,,,454
555,,,458
556,,,449
348,,,447
360,,,462
584,,,476
577,,,473
366,,,476
356,,,462
572,,,462
565,,,459
349,,,460
339,,,447
561,,,449
567,,,455
358,,,466
331,,,446
537,,,435
540,,,427
342,,,440
345,,,451
568,,,464
566,,,458
335,,,443
317,,,431
532,,,426
545,,,429
350,,,449
351,,,459
561,,,459
595,,,480
481,,,557
610,,,676
900,,,774
850,,,768
508,,,666
301,,,456
367,,,290
340,,,229
211,,,281
283,,,360
550,,,445
561,,,464
340,,,445
344,,,444
553,,,446
556,,,453
361,,,464
377,,,474
586,,,478
560,,,465
369,,,476
388,,,477
584,,,475
559,,,472
360,,,470
367,,,455
584,,,472
567,,,474
385,,,492
400,,,488
602,,,494
577,,,488
379,,,487
399,,,486
614,,,501
589,,,498
392,,,504
426,,,512
635,,,517
605,,,517
415,,,530
437,,,522
632,,,517
604,,,519
428,,,537
455,,,534
638,,,530
585,,,512
406,,,516
437,,,507
609,,,502
558,,,493
366,,,477
389,,,458
588,,,476
534,,,464
346,,,461
385,,,455
564,,,449
521,,,452
343,,,456
372,,,441
561,,,448
506,,,438
328,,,442
369,,,436
556,,,440
499,,,432
302,,,422
358,,,425
578,,,449
532,,,457
323,,,453
364,,,443
577,,,445
530,,,447
350,,,475
397,,,474
588,,,464
521,,,448
330,,,455
381,,,451
584,,,457
529,,,457
338,,,463
380,,,452
576,,,453
521,,,449
342,,,461
391,,,459
575,,,457
518,,,452
342,,,458
394,,,457
598,,,477
532,,,467
329,,,455
379,,,447
574,,,447
518,,,449
343,,,465
387,,,454
587,,,465
545,,,473
351,,,470
387,,,461
590,,,470
532,,,457
366,,,481
413,,,482
594,,,479
536,,,469
375,,,485
435,,,494
604,,,493
514,,,463
324,,,444
382,,,435
588,,,462
520,,,461
337,,,463
404,,,461
587,,,460
527,,,468
353,,,476
396,,,456
580,,,459
511,,,451
339,,,459
404,,,460
595,,,472
508,,,453
331,,,457
402,,,454
604,,,472
563,,,500
464,,,571
623,,,648
899,,,750
838,,,785
553,,,715
389,,,510
403,,,329
293,,,227
189,,,266
325,,,357
560,,,445
515,,,462
335,,,448
391,,,446
593,,,473
514,,,456
342,,,464
419,,,472
607,,,479
532,,,477
362,,,489
430,,,482
609,,,481
532,,,480
373,,,497
463,,,506
634,,,506
526,,,488
362,,,493
450,,,485
626,,,492
526,,,491
359,,,494
448,,,482
635,,,497
535,,,498
375,,,510
472,,,505
674,,,532
592,,,548
403,,,543
481,,,529
664,,,525
572,,,523
414,,,547
497,,,542
670,,,538
576,,,532
404,,,535
482,,,526
637,,,511
527,,,490
370,,,497
447,,,483
606,,,483
495,,,464
325,,,452
420,,,451
595,,,464
475,,,446
309,,,444
407,,,436
579,,,442
476,,,444
314,,,449
405,,,437
578,,,442
464,,,433
314,,,448
419,,,445
579,,,444
463,,,439
306,,,441
402,,,427
588,,,449
482,,,451
308,,,447
410,,,442
578,,,439
475,,,441
335,,,467
442,,,469
594,,,463
475,,,451
315,,,448
430,,,452
612,,,472
493,,,468
334,,,474
418,,,446
580,,,445
476,,,446
310,,,444
411,,,442
578,,,443
459,,,429
320,,,451
442,,,463
610,,,474
475,,,456
321,,,460
440,,,456
613,,,470
485,,,467
321,,,465
423,,,444
590,,,448
468,,,446
318,,,457
436,,,454
598,,,457
471,,,453
324,,,463
447,,,461
614,,,472
486,,,469
339,,,478
468,,,480
623,,,481
468,,,461
311,,,458
420,,,431
573,,,431
445,,,433
309,,,446
435,,,443
588,,,450
451,,,442
315,,,450
439,,,445
581,,,447
451,,,445
321,,,451
445,,,448
594,,,462
471,,,464
337,,,466
436,,,446
621,,,487
592,,,554
599,,,683
799,,,784
850,,,757
509,,,579
175,,,359
229,,,229
433,,,259
372,,,341
311,,,446
472,,,475
605,,,465
430,,,436
301,,,445
448,,,438
593,,,446
445,,,452
310,,,455
456,,,447
604,,,456
457,,,462
316,,,462
453,,,450
613,,,464
479,,,475
365,,,504
488,,,489
595,,,465
433,,,442
309,,,441
479,,,462
634,,,490
487,,,496
347,,,490
489,,,482
625,,,482
476,,,482
363,,,501
503,,,494
642,,,503
507,,,511
386,,,519
547,,,536
650,,,517
477,,,497
375,,,508
522,,,498
640,,,507
488,,,510
367,,,499
498,,,480
601,,,475
437,,,460
324,,,453
477,,,453
596,,,464
422,,,447
303,,,440
450,,,427
570,,,432
395,,,420
289,,,428
465,,,434
593,,,447
414,,,443
290,,,439
437,,,413
567,,,419
423,,,439
296,,,439
435,,,423
567,,,425
403,,,413
289,,,428
446,,,432
581,,,439
419,,,431
308,,,447
446,,,433
564,,,429
407,,,421
322,,,450
475,,,452
585,,,456
423,,,447
301,,,432
456,,,433
572,,,439
407,,,430
310,,,441
488,,,456
592,,,456
403,,,440
302,,,441
462,,,425
573,,,434
403,,,438
324,,,457
490,,,449
584,,,452
403,,,446
307,,,440
478,,,434
590,,,453
399,,,442
300,,,440
484,,,439
584,,,442
403,,,446
310,,,449
479,,,436
584,,,445
405,,,445
315,,,452
485,,,444
579,,,443
403,,,443
316,,,449
492,,,449
610,,,471
419,,,459
308,,,451
476,,,440
592,,,447
426,,,456
333,,,471
486,,,456
571,,,439
407,,,439
340,,,463
517,,,475
597,,,473
425,,,468
351,,,472
526,,,478
622,,,496
421,,,471
316,,,451
477,,,433
566,,,433
380,,,425
298,,,430
486,,,436
581,,,444
397,,,445
310,,,447
480,,,433
557,,,424
398,,,442
349,,,469
519,,,467
574,,,458
371,,,432
319,,,436
502,,,435
578,,,456
419,,,477
433,,,534
733,,,634
898,,,747
718,,,786
498,,,673
464,,,472
402,,,307
214,,,246
207,,,295
447,,,383
571,,,451
411,,,459
342,,,459
493,,,447
554,,,441
380,,,428
329,,,440
503,,,448
570,,,455
396,,,450
341,,,455
536,,,474
594,,,475
395,,,461
334,,,457
525,,,456
596,,,467
415,,,479
358,,,484
524,,,462
581,,,459
414,,,472
364,,,479
542,,,481
596,,,481
408,,,470
359,,,473
567,,,496
635,,,511
452,,,518
397,,,519
571,,,505
622,,,502
440,,,505
413,,,525
598,,,526
628,,,518
437,,,513
383,,,495
566,,,491
602,,,490
400,,,478
350,,,466
535,,,459
577,,,461
393,,,467
344,,,459
520,,,449
564,,,450
372,,,443
330,,,444
513,,,441
557,,,442
362,,,434
321,,,436
511,,,437
548,,,432
348,,,425
303,,,420
494,,,417
553,,,431
374,,,443
333,,,450
516,,,445
539,,,427
355,,,428
331,,,438
532,,,452
569,,,458
365,,,447
310,,,427
504,,,425
541,,,423
349,,,426
333,,,445
522,,,440
544,,,434
349,,,433
322,,,431
514,,,429
552,,,440
367,,,448
342,,,450
526,,,444
564,,,455
350,,,434
332,,,443
545,,,454
552,,,440
346,,,441
321,,,434
522,,,427
550,,,435
352,,,443
332,,,444
532,,,439
550,,,438
356,,,447
342,,,450
537,,,445
563,,,454
369,,,458
349,,,456
552,,,461
548,,,443
335,,,432
316,,,424
524,,,426
556,,,443
348,,,442
340,,,451
549,,,451
548,,,438
356,,,454
346,,,451
542,,,444
546,,,443
357,,,452
360,,,457
554,,,457
567,,,468
351,,,449
320,,,426
524,,,429
557,,,445
363,,,451
338,,,449
542,,,454
551,,,439
344,,,434
330,,,441
554,,,457
561,,,446
381,,,473
349,,,460
516,,,433
526,,,422
343,,,425
347,,,443
542,,,453
537,,,442
347,,,438
349,,,441
551,,,455
556,,,460
357,,,454
354,,,450
568,,,466
561,,,462
353,,,457
335,,,439
524,,,425
539,,,435
373,,,462
388,,,480
572,,,479
550,,,463
348,,,447
358,,,446
557,,,453
528,,,442
343,,,449
367,,,448
565,,,454
536,,,454
319,,,435
326,,,415
541,,,424
523,,,430
320,,,436
338,,,430
543,,,426
528,,,433
344,,,455
359,,,449
559,,,449
521,,,433
349,,,456
371,,,453
554,,,449
585,,,493
520,,,588
667,,,705
894,,,784
770,,,734
380,,,549
207,,,332
364,,,254
395,,,273
266,,,349
337,,,427
559,,,454
547,,,450
344,,,449
341,,,441
540,,,437
522,,,423
335,,,436
356,,,449
543,,,441
527,,,436
358,,,454
391,,,471
598,,,493
556,,,476
349,,,461
358,,,443
580,,,464
544,,,455
349,,,466
399,,,480
601,,,478
538,,,461
332,,,461
372,,,449
583,,,452
551,,,469
369,,,492
402,,,480
613,,,488
568,,,488
398,,,516
444,,,515
667,,,542
588,,,517
375,,,508
435,,,506
644,,,508
581,,,509
345,,,487
379,,,461
586,,,448
549,,,464
366,,,493
417,,,494
583,,,462
518,,,451
363,,,477
431,,,486
577,,,468
480,,,440
278,,,399
322,,,372
532,,,408
479,,,419
307,,,425
351,,,411
551,,,431
516,,,446
350,,,461
431,,,490
560,,,452
463,,,421
295,,,409
361,,,402
553,,,432
480,,,434
299,,,422
335,,,389
542,,,418
514,,,444
353,,,465
428,,,489
574,,,463
483,,,434
280,,,403
363,,,414
588,,,450
505,,,446
279,,,426
343,,,410
578,,,425
537,,,455
343,,,485
376,,,460
560,,,429
517,,,434
330,,,453
353,,,437
534,,,420
471,,,394
308,,,418
378,,,442
577,,,459
501,,,439
325,,,444
420,,,470
623,,,492
568,,,510
367,,,497
310,,,393
490,,,386
495,,,405
317,,,410
355,,,440
554,,,454
505,,,421
332,,,433
384,,,459
572,,,464
528,,,453
392,,,491
393,,,464
533,,,446
456,,,401
293,,,388
415,,,452
618,,,497
520,,,481
295,,,434
383,,,429
653,,,491
573,,,509
334,,,502
365,,,445
558,,,404
455,,,385
259,,,414
355,,,418
616,,,447
563,,,483
378,,,531
425,,,502
607,,,467
543,,,471
346,,,480
353,,,434
535,,,418
477,,,400
293,,,406
359,,,428
618,,,489
561,,,479
329,,,462
403,,,484
682,,,530
574,,,489
308,,,476
352,,,448
596,,,432
550,,,449
342,,,494
382,,,479
613,,,465
559,,,463
307,,,455
357,,,455
647,,,489
561,,,459
250,,,424
288,,,404
583,,,406
526,,,404
275,,,446
339,,,452
587,,,419
509,,,404
302,,,459
430,,,508
691,,,518
542,,,476
231,,,428
306,,,387
588,,,392
520,,,430
312,,,487
460,,,525
810,,,604
846,,,733
645,,,806
583,,,707
624,,,534
359,,,323
94,,,239
227,,,264
511,,,342
453,,,392
283,,,431
380,,,427
597,,,446
496,,,447
287,,,437
391,,,438
589,,,439
509,,,459
377,,,507
480,,,513
598,,,478
439,,,430
252,,,387
386,,,393
617,,,463
505,,,482
327,,,478
412,,,441
602,,,455
503,,,467
352,,,489
478,,,504
644,,,504
496,,,478
326,,,472
453,,,469
652,,,498
500,,,482
322,,,481
438,,,458
626,,,467
531,,,500
392,,,535
506,,,529
658,,,519
525,,,507
387,,,522
508,,,520
664,,,528
511,,,504
321,,,468
428,,,445
600,,,454
478,,,457
319,,,462
432,,,453
584,,,444
437,,,422
287,,,429
411,,,423
593,,,445
485,,,462
306,,,452
394,,,426
568,,,426
440,,,408
273,,,416
397,,,426
569,,,423
440,,,412
307,,,446
431,,,449
583,,,444
447,,,433
297,,,435
412,,,424
572,,,434
435,,,423
291,,,428
411,,,421
576,,,437
445,,,432
287,,,427
408,,,422
578,,,435
446,,,429
297,,,439
435,,,446
593,,,448
453,,,443
331,,,470
444,,,450
597,,,460
463,,,456
347,,,477
450,,,455
565,,,444
430,,,431
300,,,422
432,,,428
580,,,452
431,,,435
309,,,438
453,,,443
639,,,495
496,,,495
287,,,445
409,,,426
569,,,412
419,,,403
296,,,447
455,,,459
614,,,457
460,,,456
309,,,465
429,,,436
584,,,433
453,,,443
360,,,495
490,,,489
568,,,447
420,,,435
310,,,429
437,,,421
557,,,439
418,,,433
308,,,424
459,,,438
604,,,477
451,,,467
314,,,447
459,,,446
610,,,469
462,,,469
318,,,461
447,,,445
570,,,431
420,,,424
317,,,451
479,,,465
601,,,463
432,,,449
315,,,454
463,,,444
596,,,454
432,,,450
307,,,450
457,,,439
608,,,460
466,,,475
348,,,489
467,,,461
573,,,442
425,,,434
326,,,451
492,,,473
614,,,483
434,,,457
309,,,447
463,,,441
602,,,459
449,,,465
355,,,491
505,,,483
622,,,487
441,,,467
333,,,471
492,,,463
622,,,480
432,,,462
315,,,461
481,,,450
588,,,443
398,,,433
292,,,438
457,,,421
597,,,447
423,,,451
319,,,464
471,,,444
590,,,447
425,,,449
329,,,466
472,,,448
586,,,453
442,,,461
337,,,464
519,,,492
702,,,554
668,,,654
680,,,774
810,,,796
746,,,682
373,,,467
130,,,280
282,,,230
469,,,305
352,,,371
299,,,437
492,,,455
607,,,460
427,,,462
305,,,454
481,,,448
599,,,447
427,,,457
338,,,483
493,,,462
599,,,458
418,,,450
321,,,459
497,,,461
607,,,467
444,,,475
354,,,487
515,,,481
616,,,484
445,,,479
363,,,490
529,,,491
625,,,497
435,,,477
345,,,476
519,,,474
629,,,493
475,,,511
384,,,514
541,,,505
631,,,503
474,,,508
399,,,520
576,,,535
676,,,549
491,,,532
403,,,532
573,,,530
644,,,517
455,,,504
376,,,504
542,,,493
619,,,492
435,,,486
349,,,477
511,,,462
586,,,461
408,,,457
330,,,454
505,,,454
597,,,468
397,,,449
304,,,439
462,,,416
559,,,425
394,,,434
319,,,448
488,,,445
561,,,434
372,,,420
298,,,426
481,,,429
569,,,437
400,,,447
359,,,480
489,,,442
550,,,439
373,,,423
331,,,437
521,,,460
571,,,461
366,,,434
306,,,422
500,,,429
590,,,463
410,,,472
348,,,473
509,,,450
568,,,447
380,,,440
330,,,449
524,,,458
593,,,468
402,,,466
318,,,448
486,,,430
560,,,431
389,,,440
332,,,455
521,,,465
579,,,455
390,,,448
349,,,468
531,,,467
578,,,461
370,,,440
314,,,435
520,,,445
588,,,460
384,,,458
319,,,449
511,,,438
578,,,446
401,,,467
345,,,471
536,,,468
583,,,459
370,,,443
331,,,454
533,,,454
600,,,471
388,,,465
308,,,443
509,,,436
590,,,450
396,,,462
346,,,480
519,,,454
563,,,438
386,,,449
354,,,469
543,,,474
590,,,475
395,,,465
357,,,470
533,,,462
567,,,458
387,,,458
353,,,458
539,,,465
585,,,476
405,,,476
373,,,478
563,,,488
588,,,483
382,,,463
353,,,461
544,,,461
576,,,466
374,,,458
319,,,435
506,,,426
559,,,439
384,,,456
354,,,467
534,,,460
568,,,456
370,,,445
335,,,448
536,,,457
583,,,465
393,,,468
345,,,463
528,,,455
573,,,454
437,,,498
512,,,595
796,,,689
912,,,787
660,,,755
447,,,616
430,,,415
365,,,270
201,,,244
240,,,316
500,,,417
554,,,452
371,,,449
362,,,459
559,,,471
570,,,471
371,,,463
353,,,454
562,,,464
579,,,472
380,,,477
362,,,470
569,,,469
597,,,484
389,,,487
366,,,480
563,,,466
585,,,470
403,,,493
383,,,493
564,,,477
576,,,470
398,,,481
391,,,490
576,,,491
603,,,502
429,,,508
415,,,511
617,,,532
634,,,533
419,,,508
384,,,493
592,,,502
623,,,508
452,,,534
437,,,544
619,,,536
621,,,519
431,,,517
428,,,526
630,,,538
642,,,541
451,,,542
398,,,506
556,,,478
564,,,464
342,,,429
329,,,434
528,,,437
537,,,431
357,,,445
346,,,447
530,,,441
525,,,428
339,,,430
347,,,438
547,,,449
552,,,457
342,,,442
317,,,420
521,,,422
516,,,412
325,,,424
327,,,427
527,,,425
525,,,424
345,,,443
344,,,440
532,,,434
531,,,436
352,,,446
364,,,453
554,,,457
525,,,440
332,,,434
359,,,441
568,,,458
543,,,458
329,,,444
340,,,429
545,,,429
527,,,435
333,,,446
357,,,445
564,,,448
535,,,445
337,,,452
363,,,450
562,,,446
548,,,458
341,,,455
341,,,435
532,,,424
512,,,420
325,,,430
355,,,441
555,,,446
531,,,444
347,,,453
374,,,456
572,,,463
538,,,456
323,,,438
348,,,434
552,,,435
515,,,429
328,,,444
350,,,433
557,,,439
532,,,445
333,,,449
358,,,445
556,,,441
522,,,436
332,,,445
375,,,455
573,,,456
521,,,444
337,,,454
368,,,442
569,,,451
537,,,459
332,,,450
349,,,432
550,,,434
529,,,442
353,,,461
390,,,470
595,,,482
542,,,463
343,,,460
367,,,448
568,,,451
556,,,469
361,,,472
348,,,442
528,,,428
500,,,410
327,,,423
363,,,444
549,,,448
492,,,417
319,,,424
367,,,434
556,,,444
512,,,444
329,,,441
367,,,434
560,,,445
522,,,452
360,,,469
451,,,505
722,,,584
769,,,675
670,,,767
643,,,728
634,,,585
372,,,372
101,,,225
190,,,213
473,,,319
488,,,420
323,,,453
384,,,446
576,,,444
501,,,439
300,,,435
357,,,423
589,,,446
537,,,459
339,,,477
372,,,454
556,,,427
503,,,424
342,,,461
403,,,471
597,,,475
518,,,453
331,,,455
396,,,457
590,,,463
542,,,476
361,,,483
392,,,461
581,,,464
521,,,453
351,,,465
427,,,485
617,,,496
547,,,489
371,,,492
432,,,487
634,,,508
578,,,516
400,,,522
455,,,516
642,,,520
551,,,494
365,,,493
430,,,486
611,,,483
546,,,489
375,,,498
423,,,480
594,,,475
506,,,455
330,,,453
394,,,444
605,,,475
519,,,464
312,,,449
349,,,415
526,,,398
477,,,409
303,,,423
362,,,426
548,,,427
466,,,405
291,,,413
364,,,420
557,,,429
473,,,418
311,,,436
418,,,461
580,,,450
454,,,422
279,,,417
365,,,397
578,,,433
470,,,432
299,,,444
377,,,416
558,,,416
487,,,441
316,,,449
391,,,437
579,,,446
493,,,443
321,,,451
378,,,431
542,,,419
487,,,431
329,,,443
390,,,444
557,,,445
477,,,426
308,,,421
387,,,434
570,,,451
471,,,426
311,,,432
408,,,445
587,,,458
485,,,448
313,,,445
392,,,430
580,,,445
491,,,448
313,,,448
384,,,430
555,,,423
464,,,418
316,,,443
413,,,450
582,,,451
464,,,432
310,,,442
417,,,443
590,,,454
477,,,450
309,,,447
403,,,431
578,,,439
468,,,438
311,,,448
408,,,436
583,,,445
471,,,441
315,,,451
420,,,446
590,,,452
471,,,445
320,,,456
432,,,454
618,,,476
521,,,490
346,,,485
429,,,465
578,,,447
459,,,429
295,,,428
398,,,427
572,,,436
463,,,431
321,,,451
418,,,445
570,,,442
454,,,430
307,,,434
433,,,450
593,,,460
471,,,454
307,,,443
403,,,424
583,,,444
471,,,444
311,,,448
409,,,437
602,,,460
568,,,518
546,,,643
758,,,753
890,,,768
610,,,647
256,,,454
247,,,286
411,,,249
362,,,310
271,,,399
408,,,435
573,,,438
453,,,426
305,,,438
429,,,450
589,,,452
448,,,431
305,,,442
435,,,445
593,,,452
462,,,451
325,,,462
449,,,455
607,,,468
478,,,469
338,,,474
446,,,455
593,,,460
479,,,467
344,,,471
458,,,468
600,,,473
470,,,461
330,,,458
461,,,467
625,,,489
498,,,487
378,,,508
510,,,513
636,,,506
503,,,503
380,,,508
522,,,515
674,,,538
534,,,537
382,,,522
492,,,496
631,,,494
509,,,502
389,,,519
500,,,505
616,,,492
455,,,459
321,,,452
454,,,449
593,,,459
458,,,460
313,,,449
432,,,435
584,,,447
441,,,436
309,,,445
441,,,444
575,,,439
417,,,418
297,,,433
425,,,421
550,,,417
407,,,413
294,,,423
427,,,417
569,,,437
439,,,443
318,,,446
429,,,428
564,,,438
440,,,437
316,,,439
436,,,438
575,,,449
417,,,418
303,,,431
455,,,446
582,,,448
429,,,440
307,,,442
439,,,428
574,,,438
426,,,435
308,,,442
455,,,442
591,,,453
435,,,447
303,,,443
462,,,447
604,,,458
451,,,463
306,,,454
434,,,428
571,,,426
437,,,439
308,,,448
447,,,444
577,,,438
425,,,429
302,,,439
450,,,442
579,,,441
438,,,444
331,,,462
476,,,464
596,,,464
440,,,454
319,,,451
463,,,448
566,,,437
409,,,429
306,,,433
457,,,432
575,,,445
421,,,444
323,,,450
486,,,457
612,,,478
442,,,469
316,,,455
455,,,434
579,,,441
428,,,445
326,,,459
488,,,466
597,,,462
431,,,455
353,,,481
508,,,476
592,,,467
424,,,460
325,,,451
477,,,442
593,,,463
444,,,472
334,,,463
469,,,446
560,,,437
382,,,411
300,,,423
479,,,441
588,,,457
404,,,442
291,,,428
470,,,432
586,,,443
411,,,446
315,,,456
474,,,439
577,,,438
440,,,467
435,,,547
719,,,647
902,,,744
745,,,788
512,,,688
460,,,489
398,,,307
197,,,220
166,,,257
399,,,344
559,,,432
406,,,441
323,,,445
474,,,438
580,,,454
410,,,444
331,,,455
517,,,474
600,,,471
433,,,476
358,,,483
498,,,457
572,,,454
403,,,446
315,,,435
493,,,447
610,,,478
429,,,470
338,,,471
505,,,464
604,,,469
439,,,475
360,,,490
523,,,484
622,,,491
454,,,490
383,,,509
546,,,506
624,,,500
462,,,502
375,,,497
539,,,498
627,,,503
459,,,499
405,,,522
580,,,530
649,,,530
457,,,512
386,,,508
560,,,503
635,,,511
431,,,492
360,,,488
561,,,495
625,,,494
394,,,469
288,,,434
471,,,405
558,,,412
381,,,439
314,,,452
495,,,436
564,,,429
380,,,437
303,,,435
481,,,426
558,,,427
382,,,433
317,,,442
484,,,433
567,,,442
394,,,441
310,,,434
473,,,429
543,,,422
374,,,417
323,,,438
496,,,446
560,,,445
379,,,431
322,,,436
501,,,444
584,,,464
394,,,449
324,,,446
514,,,455
576,,,451
394,,,453
331,,,455
499,,,440
553,,,433
369,,,430
318,,,435
502,,,437
571,,,450
374,,,439
321,,,443
512,,,443
560,,,438
373,,,442
335,,,452
536,,,460
610,,,484
379,,,457
300,,,437
503,,,429
572,,,432
374,,,444
313,,,450
503,,,434
563,,,429
383,,,447
334,,,460
510,,,446
566,,,444
377,,,440
357,,,470
588,,,508
620,,,501
369,,,462
298,,,431
507,,,418
584,,,445
397,,,474
338,,,472
521,,,449
565,,,437
372,,,443
324,,,448
512,,,441
568,,,445
383,,,450
336,,,455
518,,,451
574,,,455
399,,,461
353,,,466
510,,,451
524,,,422
341,,,407
311,,,411
513,,,438
567,,,458
378,,,450
342,,,450
576,,,492
713,,,574
656,,,692
714,,,800
838,,,785
661,,,624
219,,,372
78,,,204
343,,,211
465,,,307
315,,,407
310,,,444
521,,,423
563,,,427
358,,,449
327,,,458
513,,,426
562,,,434
394,,,468
372,,,486
565,,,488
592,,,481
397,,,474
349,,,461
525,,,454
558,,,449
373,,,443
359,,,461
561,,,482
586,,,481
391,,,471
358,,,464
563,,,479
609,,,496
422,,,501
384,,,496
572,,,493
611,,,498
444,,,516
403,,,512
572,,,504
595,,,490
413,,,483
418,,,514
615,,,532
624,,,526
432,,,519
420,,,517
606,,,516
616,,,519
427,,,518
418,,,513
602,,,509
599,,,505
392,,,490
335,,,442
511,,,425
521,,,417
342,,,426
327,,,427
526,,,438
533,,,431
334,,,425
323,,,425
521,,,427
530,,,426
345,,,436
349,,,447
548,,,451
535,,,438
334,,,435
310,,,411
494,,,399
509,,,407
350,,,435
342,,,436
530,,,443
530,,,436
343,,,431
345,,,436
547,,,452
546,,,451
345,,,442
339,,,436
548,,,447
542,,,442
354,,,454
362,,,458
543,,,443
539,,,445
344,,,443
349,,,441
540,,,440
520,,,430
332,,,433
345,,,432
547,,,442
541,,,450
345,,,449
343,,,436
552,,,446
550,,,452
365,,,465
345,,,444
522,,,430
517,,,422
334,,,424
343,,,434
551,,,453
544,,,449
348,,,446
357,,,451
557,,,455
533,,,440
344,,,448
379,,,464
575,,,464
550,,,465
370,,,479
383,,,466
559,,,454
517,,,441
320,,,430
353,,,428
554,,,439
528,,,448
328,,,442
348,,,430
548,,,433
521,,,436
330,,,443
357,,,441
553,,,440
535,,,448
368,,,472
368,,,453
524,,,431
495,,,418
324,,,416
360,,,431
568,,,465
583,,,496
494,,,569
644,,,684
894,,,773
776,,,732
408,,,580
240,,,367
362,,,255
365,,,253
239,,,325
310,,,392
557,,,445
546,,,449
348,,,457
348,,,447
539,,,435
516,,,420
344,,,444
391,,,474
577,,,471
531,,,454
339,,,449
372,,,447
583,,,466
543,,,464
362,,,477
405,,,478
606,,,486
544,,,473
351,,,475
395,,,464
602,,,475
556,,,483
369,,,493
388,,,463
596,,,474
576,,,492
388,,,502
440,,,518
624,,,508
578,,,502
412,,,523
452,,,521
662,,,546
611,,,538
402,,,523
437,,,514
624,,,505
572,,,497
394,,,510
437,,,507
618,,,502
531,,,470
352,,,473
403,,,462
596,,,473
535,,,474
316,,,446
368,,,436
575,,,442
519,,,447
329,,,459
369,,,442
558,,,432
490,,,421
300,,,426
359,,,425
559,,,430
491,,,425
312,,,439
370,,,433
564,,,436
486,,,425
313,,,439
378,,,435
572,,,444
492,,,436
327,,,452
403,,,452
595,,,466
505,,,456
305,,,440
352,,,409
553,,,420
489,,,427
326,,,451
397,,,452
577,,,451
491,,,438
318,,,444
390,,,440
586,,,456
502,,,450
326,,,455
389,,,441
571,,,443
493,,,441
335,,,458
399,,,448
568,,,447
486,,,439
307,,,430
377,,,425
570,,,443
506,,,450
323,,,447
386,,,443
576,,,451
491,,,434
331,,,454
404,,,455
577,,,454
492,,,444
326,,,448
398,,,443
568,,,445
506,,,457
339,,,457
394,,,445
571,,,453
500,,,447
354,,,466
425,,,471
589,,,475
504,,,460
340,,,456
415,,,457
591,,,470
513,,,468
337,,,459
396,,,445
583,,,459
498,,,447
326,,,452
393,,,444
560,,,436
461,,,416
294,,,421
395,,,433
589,,,452
495,,,453
307,,,447
389,,,434
574,,,433
487,,,439
331,,,465
449,,,485
685,,,533
680,,,613
609,,,717
739,,,770
804,,,704
513,,,542
167,,,348
192,,,226
436,,,263
410,,,345
302,,,437
414,,,456
590,,,451
481,,,440
320,,,456
410,,,448
578,,,445
487,,,448
343,,,467
439,,,471
604,,,478
479,,,452
301,,,435
413,,,439
604,,,462
502,,,469
347,,,484
435,,,468
604,,,469
501,,,467
374,,,500
447,,,477
614,,,491
507,,,477
364,,,485
459,,,485
621,,,498
512,,,486
371,,,493
472,,,494
633,,,507
519,,,496
385,,,509
491,,,508
648,,,520
539,,,520
387,,,515
489,,,508
646,,,516
519,,,502
370,,,502
478,,,494
636,,,502
496,,,482
334,,,475
432,,,451
592,,,453
462,,,444
300,,,442
401,,,423
571,,,429
452,,,427
315,,,452
422,,,443
583,,,446
467,,,445
319,,,453
412,,,435
559,,,429
437,,,417
307,,,433
441,,,451
580,,,450
439,,,434
291,,,426
404,,,411
574,,,435
453,,,439
309,,,446
426,,,439
581,,,443
456,,,441
331,,,463
430,,,444
573,,,445
452,,,439
320,,,446
439,,,448
584,,,456
442,,,436
297,,,429
424,,,429
584,,,446
451,,,443
310,,,448
432,,,439
582,,,443
453,,,443
315,,,452
440,,,448
595,,,456
463,,,453
318,,,457
427,,,440
592,,,452
449,,,435
322,,,459
444,,,453
586,,,450
440,,,434
308,,,444
433,,,436
590,,,451
457,,,450
312,,,450
438,,,445
590,,,451
458,,,449
332,,,466
471,,,473
612,,,475
452,,,454
315,,,456
435,,,435
594,,,452
455,,,450
312,,,453
442,,,446
589,,,448
449,,,445
326,,,462
463,,,461
600,,,463
454,,,457
325,,,461
461,,,455
613,,,473
481,,,481
351,,,487
486,,,485
604,,,470
443,,,451
337,,,469
474,,,461
603,,,470
439,,,455
299,,,438
435,,,423
580,,,439
439,,,445
317,,,454
449,,,443
580,,,444
437,,,441
332,,,462
471,,,461
594,,,463
432,,,446
328,,,459
482,,,462
593,,,461
443,,,463
363,,,487
601,,,555
848,,,677
790,,,784
594,,,752
551,,,605
498,,,418
252,,,267
143,,,251
363,,,328
576,,,427
459,,,465
335,,,475
460,,,456
596,,,457
439,,,443
319,,,458
463,,,455
586,,,447
439,,,447
344,,,476
492,,,476
602,,,471
437,,,457
320,,,453
472,,,450
608,,,469
461,,,477
349,,,484
523,,,500
647,,,506
461,,,487
338,,,484
482,,,459
610,,,465
460,,,478
362,,,499
513,,,490
631,,,495
479,,,499
378,,,509
536,,,512
646,,,514
493,,,515
402,,,528
556,,,529
650,,,525
484,,,515
384,,,510
538,,,506
643,,,515
463,,,497
349,,,483
496,,,467
611,,,477
431,,,461
319,,,457
492,,,460
592,,,452
418,,,451
303,,,444
473,,,440
601,,,455
419,,,449
313,,,459
461,,,433
568,,,427
417,,,441
300,,,437
455,,,432
564,,,428
404,,,426
316,,,446
471,,,444
570,,,441
394,,,425
319,,,444
499,,,458
580,,,453
405,,,450
329,,,453
501,,,451
593,,,466
392,,,445
287,,,423
456,,,407
565,,,426
409,,,448
318,,,451
475,,,438
574,,,442
406,,,441
331,,,457
499,,,459
593,,,465
406,,,448
325,,,454
510,,,462
617,,,480
396,,,448
297,,,443
471,,,422
575,,,429
406,,,448
311,,,452
476,,,436
574,,,435
412,,,447
334,,,464
498,,,460
577,,,451
397,,,439
333,,,455
523,,,472
594,,,469
394,,,451
306,,,437
484,,,428
572,,,439
393,,,445
306,,,439
487,,,436
592,,,454
415,,,460
337,,,471
500,,,456
580,,,450
421,,,461
340,,,464
513,,,471
574,,,453
377,,,428
312,,,434
483,,,429
569,,,444
407,,,454
343,,,461
499,,,451
579,,,461
407,,,453
346,,,462
520,,,469
589,,,471
443,,,489
380,,,491
539,,,492
592,,,484
417,,,468
333,,,446
494,,,447
571,,,455
401,,,446
331,,,447
504,,,455
568,,,450
380,,,434
321,,,441
507,,,447
578,,,452
397,,,456
349,,,470
529,,,465
564,,,447
357,,,430
287,,,411
493,,,418
580,,,445
390,,,457
328,,,460
518,,,450
627,,,486
548,,,583
633,,,718
876,,,793
844,,,756
487,,,617
232,,,400
300,,,247
393,,,250
283,,,313
278,,,389
491,,,437
563,,,441
390,,,440
326,,,445
524,,,468
580,,,458
383,,,443
339,,,459
537,,,468
590,,,467
386,,,458
351,,,472
539,,,462
575,,,457
386,,,464
352,,,466
538,,,458
578,,,465
388,,,467
347,,,459
541,,,460
592,,,476
422,,,495
378,,,489
571,,,497
603,,,491
401,,,478
380,,,490
587,,,503
654,,,534
455,,,532
395,,,518
577,,,505
614,,,495
424,,,496
392,,,507
584,,,508
628,,,511
431,,,507
388,,,505
579,,,502
596,,,483
390,,,473
357,,,471
548,,,465
570,,,458
381,,,464
349,,,458
522,,,442
540,,,436
359,,,438
336,,,437
518,,,438
529,,,431
334,,,418
308,,,408
513,,,425
544,,,436
341,,,428
303,,,416
514,,,426
557,,,436
357,,,441
316,,,437
514,,,431
561,,,436
364,,,442
318,,,442
507,,,432
548,,,426
363,,,434
334,,,450
511,,,440
532,,,422
359,,,430
351,,,450
548,,,468
557,,,458
366,,,450
360,,,455
542,,,454
538,,,447
339,,,433
330,,,423
536,,,437
541,,,444
345,,,444
335,,,432
528,,,429
540,,,440
348,,,445
341,,,440
541,,,442
547,,,445
361,,,456
365,,,462
546,,,450
534,,,441
348,,,444
343,,,435
539,,,442
540,,,445
337,,,435
342,,,437
538,,,437
549,,,450
355,,,452
360,,,456
537,,,441
534,,,441
352,,,445
354,,,444
550,,,455
539,,,448
343,,,440
371,,,457
568,,,463
550,,,463
331,,,442
329,,,423
541,,,429
566,,,461
388,,,487
377,,,479
582,,,484
575,,,472
373,,,472
346,,,454
544,,,450
544,,,437
356,,,448
346,,,450
543,,,450
529,,,429
325,,,423
324,,,424
531,,,430
536,,,433
352,,,448
355,,,452
537,,,442
530,,,437
343,,,438
348,,,438
559,,,458
562,,,465
368,,,466
389,,,481
641,,,526
748,,,621
677,,,740
669,,,765
717,,,676
496,,,473
146,,,275
127,,,201
415,,,275
478,,,364
332,,,440
368,,,463
565,,,451
534,,,442
343,,,456
367,,,454
566,,,451
537,,,451
339,,,453
362,,,447
557,,,443
556,,,466
362,,,469
370,,,461
566,,,461
550,,,458
362,,,464
393,,,479
604,,,495
570,,,483
371,,,482
390,,,477
593,,,481
549,,,464
367,,,479
388,,,470
597,,,483
574,,,488
391,,,500
420,,,502
623,,,510
611,,,523
426,,,533
432,,,520
624,,,520
612,,,522
432,,,530
435,,,523
613,,,519
579,,,496
388,,,486
409,,,491
596,,,495
550,,,472
346,,,455
363,,,444
563,,,452
526,,,444
330,,,443
361,,,441
557,,,442
540,,,455
346,,,457
324,,,417
512,,,411
489,,,397
318,,,415
356,,,437
547,,,443
495,,,419
305,,,414
349,,,421
559,,,441
524,,,447
321,,,440
342,,,422
543,,,424
519,,,435
350,,,461
387,,,463
559,,,450
471,,,408
297,,,413
361,,,417
566,,,441
520,,,456
328,,,451
367,,,433
562,,,439
511,,,442
325,,,446
371,,,439
572,,,449
506,,,437
327,,,449
376,,,442
577,,,452
525,,,456
330,,,454
367,,,439
549,,,429
490,,,420
321,,,438
368,,,433
567,,,447
510,,,442
320,,,441
362,,,431
561,,,439
505,,,434
341,,,457
410,,,471
592,,,471
508,,,452
304,,,433
345,,,408
556,,,426
493,,,425
323,,,448
379,,,442
582,,,454
511,,,446
331,,,458
398,,,459
593,,,463
528,,,465
364,,,487
442,,,495
614,,,489
492,,,451
293,,,431
360,,,406
561,,,421
506,,,450
317,,,451
383,,,440
566,,,434
491,,,434
324,,,450
387,,,442
564,,,440
498,,,442
335,,,453
415,,,464
575,,,457
485,,,441
309,,,430
368,,,415
568,,,443
499,,,444
351,,,468
500,,,532
793,,,635
824,,,743
645,,,774
563,,,668
536,,,479
308,,,286
140,,,241
277,,,289
534,,,396
460,,,422
311,,,441
391,,,424
577,,,443
502,,,461
307,,,443
391,,,437
582,,,442
496,,,446
335,,,469
413,,,460
606,,,470
530,,,477
350,,,483
419,,,473
600,,,469
491,,,442
333,,,464
438,,,477
618,,,481
511,,,473
335,,,474
427,,,464
620,,,477
540,,,495
376,,,511
454,,,497
633,,,499
533,,,490
383,,,512
474,,,510
653,,,521
550,,,513
387,,,518
471,,,507
656,,,523
552,,,514
375,,,509
463,,,503
644,,,508
553,,,510
370,,,506
449,,,495
617,,,484
507,,,466
324,,,461
389,,,436
558,,,427
460,,,415
311,,,437
391,,,431
570,,,442
478,,,435
310,,,437
399,,,439
570,,,442
472,,,433
333,,,456
405,,,441
555,,,437
458,,,425
295,,,415
393,,,424
568,,,442
453,,,423
299,,,427
394,,,422
566,,,435
461,,,431
304,,,435
414,,,440
585,,,449
476,,,449
323,,,457
425,,,449
584,,,450
465,,,443
307,,,442
407,,,430
591,,,451
478,,,450
317,,,456
401,,,432
560,,,426
465,,,431
322,,,449
417,,,447
580,,,452
472,,,442
329,,,454
436,,,460
586,,,460
443,,,427
292,,,424
423,,,433
609,,,465
462,,,450
303,,,452
404,,,420
586,,,436
473,,,449
322,,,466
431,,,454
590,,,448
472,,,448
323,,,461
435,,,456
595,,,457
474,,,452
317,,,454
417,,,441
583,,,447
450,,,427
303,,,439
428,,,445
588,,,449
459,,,443
312,,,450
438,,,449
608,,,465
475,,,462
331,,,472
461,,,470
629,,,483
468,,,462
310,,,462
458,,,461
637,,,477
485,,,479
311,,,474
416,,,431
582,,,426
458,,,438
310,,,458
419,,,439
574,,,432
450,,,429
314,,,449
440,,,454
601,,,463
480,,,462
335,,,469
429,,,449
572,,,444
444,,,427
306,,,432
425,,,439
583,,,453
448,,,434
339,,,463
536,,,525
784,,,622
766,,,729
671,,,794
657,,,704
576,,,523
265,,,309
114,,,223
328,,,277
543,,,393
421,,,442
316,,,456
451,,,428
583,,,442
435,,,454
303,,,445
440,,,425
597,,,450
455,,,461
321,,,466
466,,,460
613,,,465
466,,,468
339,,,483
470,,,468
592,,,453
465,,,465
335,,,468
459,,,460
602,,,468
467,,,462
344,,,474
476,,,478
614,,,482
473,,,471
360,,,488
506,,,500
664,,,527
504,,,507
360,,,502
507,,,504
627,,,486
483,,,489
373,,,508
512,,,500
643,,,508
494,,,506
375,,,509
518,,,504
644,,,509
486,,,501
357,,,494
497,,,483
627,,,489
459,,,474
332,,,473
467,,,454
577,,,441
404,,,424
283,,,422
439,,,418
577,,,434
416,,,433
297,,,438
457,,,437
579,,,437
426,,,444
305,,,445
447,,,431
573,,,434
430,,,442
310,,,445
441,,,431
562,,,430
402,,,414
304,,,433
460,,,440
570,,,439
404,,,427
302,,,432
468,,,439
577,,,444
417,,,445
335,,,462
489,,,455
594,,,466
411,,,448
299,,,434
453,,,419
581,,,441
420,,,447
306,,,445
454,,,430
572,,,434
413,,,434
311,,,445
480,,,454
594,,,456
423,,,449
313,,,452
479,,,451
600,,,457
444,,,467
318,,,460
460,,,442
561,,,425
402,,,422
310,,,440
472,,,446
588,,,455
421,,,446
313,,,446
488,,,458
597,,,460
416,,,448
313,,,451
475,,,442
599,,,457
432,,,461
316,,,457
454,,,431
571,,,433
420,,,439
324,,,455
483,,,460
575,,,446
400,,,429
309,,,437
482,,,446
596,,,461
405,,,442
321,,,456
496,,,453
602,,,464
434,,,473
335,,,470
472,,,438
563,,,435
409,,,441
345,,,463
501,,,463
581,,,464
409,,,450
337,,,453
517,,,468
609,,,486
431,,,479
355,,,478
517,,,468
612,,,486
435,,,481
327,,,459
476,,,439
561,,,432
377,,,417
319,,,445
496,,,447
570,,,443
390,,,441
318,,,444
493,,,440
584,,,455
393,,,445
330,,,458
532,,,471
610,,,476
403,,,466
317,,,456
513,,,450
659,,,504
610,,,629
652,,,750
826,,,776
758,,,683
356,,,479
135,,,295
316,,,236
484,,,310
356,,,398
318,,,462
529,,,472
607,,,461
380,,,442
290,,,441
477,,,419
578,,,427
401,,,450
333,,,473
506,,,457
586,,,451
408,,,454
348,,,474
526,,,476
607,,,481
432,,,479
353,,,476
534,,,485
601,,,479
420,,,471
341,,,463
508,,,459
585,,,463
416,,,462
368,,,482
557,,,501
615,,,499
441,,,498
389,,,501
567,,,506
632,,,517
460,,,519
411,,,522
582,,,520
626,,,516
435,,,501
381,,,493
562,,,495
638,,,520
463,,,523
395,,,514
540,,,487
588,,,476
414,,,468
356,,,468
527,,,472
574,,,463
384,,,444
337,,,449
526,,,459
564,,,450
355,,,430
311,,,429
495,,,419
556,,,434
382,,,451
319,,,440
501,,,434
547,,,427
363,,,430
321,,,437
509,,,438
562,,,443
370,,,440
325,,,443
511,,,439
552,,,434
375,,,445
334,,,448
504,,,435
546,,,434
364,,,433
342,,,448
533,,,457
568,,,460
351,,,433
301,,,417
503,,,421
568,,,443
395,,,467
351,,,470
519,,,450
549,,,437
365,,,435
334,,,442
526,,,451
567,,,455
384,,,457
344,,,454
502,,,434
545,,,438
368,,,433
342,,,445
543,,,469
566,,,460
370,,,449
341,,,448
530,,,448
556,,,448
369,,,451
331,,,440
516,,,435
560,,,448
372,,,449
339,,,450
538,,,458
569,,,455
367,,,448
338,,,452
533,,,450
549,,,437
367,,,449
335,,,444
543,,,457
558,,,447
359,,,448
337,,,447
530,,,440
560,,,448
372,,,457
355,,,462
550,,,463
572,,,464
377,,,463
361,,,466
534,,,450
551,,,450
351,,,437
329,,,431
547,,,454
582,,,470
384,,,473
363,,,474
560,,,470
569,,,460
370,,,462
365,,,470
569,,,472
575,,,469
369,,,468
318,,,432
501,,,413
521,,,410
359,,,438
362,,,459
540,,,457
539,,,446
350,,,436
342,,,434
536,,,446
552,,,456
361,,,449
346,,,443
545,,,454
568,,,465
395,,,479
419,,,510
688,,,579
835,,,698
716,,,779
611,,,744
602,,,591
402,,,358
137,,,223
178,,,237
461,,,342
515,,,418
361,,,459
372,,,458
564,,,461
553,,,465
347,,,454
343,,,437
550,,,441
546,,,447
353,,,459
359,,,456
560,,,453
562,,,462
369,,,472
361,,,461
563,,,460
570,,,466
391,,,486
388,,,487
566,,,473
568,,,471
408,,,494
396,,,487
573,,,489
569,,,480
385,,,470
403,,,488
598,,,505
596,,,507
419,,,509
431,,,515
619,,,524
605,,,520
397,,,498
410,,,498
632,,,522
632,,,534
417,,,527
410,,,513
614,,,505
600,,,498
397,,,507
386,,,490
569,,,466
544,,,447
355,,,458
374,,,465
556,,,452
523,,,438
326,,,434
346,,,430
555,,,443
536,,,448
355,,,462
363,,,449
534,,,433
494,,,416
307,,,411
328,,,405
542,,,432
512,,,429
317,,,428
332,,,416
544,,,430
523,,,433
324,,,436
350,,,439
554,,,439
532,,,440
371,,,477
375,,,461
538,,,440
511,,,431
335,,,431
341,,,420
542,,,444
515,,,433
336,,,434
364,,,442
551,,,449
515,,,438
337,,,440
364,,,438
556,,,449
525,,,448
349,,,454
378,,,452
563,,,456
516,,,444
327,,,438
353,,,426
553,,,439
510,,,435
326,,,440
365,,,438
561,,,443
526,,,449
341,,,456
359,,,438
546,,,435
513,,,433
346,,,451
391,,,463
569,,,462
525,,,455
335,,,444
348,,,424
544,,,435
511,,,432
339,,,444
371,,,446
561,,,453
508,,,435
336,,,444
363,,,434
562,,,451
521,,,447
335,,,446
373,,,445
577,,,460
547,,,468
349,,,465
366,,,449
551,,,439
508,,,427
335,,,444
386,,,458
589,,,472
543,,,468
372,,,486
399,,,472
576,,,465
523,,,454
357,,,466
389,,,455
556,,,450
491,,,431
319,,,428
385,,,440
580,,,461
516,,,458
331,,,453
367,,,429
563,,,441
513,,,446
324,,,445
368,,,437
564,,,441
500,,,430
347,,,464
398,,,460
583,,,465
541,,,475
444,,,541
611,,,636
888,,,744
824,,,772
511,,,676
344,,,469
387,,,305
297,,,219
195,,,273
327,,,368
557,,,443
519,,,460
354,,,462
386,,,445
564,,,457
499,,,441
335,,,443
417,,,467
605,,,486
507,,,460
342,,,466
403,,,449
580,,,455
498,,,453
331,,,456
421,,,461
617,,,482
522,,,479
335,,,474
410,,,455
614,,,471
540,,,487
369,,,506
430,,,484
626,,,490
561,,,501
379,,,510
425,,,488
611,,,484
534,,,471
383,,,503
466,,,518
644,,,520
555,,,506
390,,,513
470,,,515
648,,,523
569,,,523
408,,,530
475,,,520
639,,,519
524,,,487
346,,,475
414,,,455
590,,,462
491,,,451
318,,,448
399,,,439
576,,,445
476,,,437
311,,,442
387,,,427
576,,,443
488,,,444
304,,,438
381,,,428
556,,,423
470,,,422
324,,,450
404,,,445
558,,,436
444,,,411
286,,,411
386,,,414
575,,,442
468,,,436
300,,,434
390,,,423
580,,,441
483,,,445
306,,,445
406,,,443
601,,,456
492,,,452
315,,,460
392,,,435
571,,,430
473,,,429
312,,,448
403,,,443
574,,,439
470,,,431
313,,,445
405,,,440
584,,,451
475,,,440
308,,,441
411,,,443
588,,,452
475,,,443
313,,,449
415,,,444
610,,,467
498,,,464
316,,,461
392,,,433
561,,,423
467,,,425
312,,,443
415,,,450
577,,,445
467,,,435
315,,,445
434,,,458
609,,,472
477,,,455
312,,,453
414,,,437
591,,,449
480,,,453
323,,,462
415,,,443
577,,,442
451,,,426
287,,,424
397,,,421
575,,,434
455,,,429
306,,,444
422,,,442
593,,,452
464,,,444
312,,,452
425,,,443
582,,,443
446,,,431
296,,,436
431,,,440
608,,,460
473,,,460
315,,,463
417,,,433
591,,,444
465,,,445
331,,,471
450,,,464
608,,,468
480,,,465
330,,,468
443,,,458
587,,,452
454,,,442
327,,,458
446,,,453
579,,,450
437,,,434
299,,,430
420,,,423
577,,,442
452,,,444
319,,,450
441,,,447
586,,,453
439,,,435
303,,,438
422,,,425
589,,,449
463,,,453
307,,,447
424,,,437
625,,,476
587,,,545
591,,,688
792,,,781
868,,,760
573,,,626
226,,,414
221,,,248
413,,,252
357,,,308
275,,,402
431,,,452
585,,,449
439,,,422
296,,,434
440,,,449
594,,,450
454,,,446
326,,,466
447,,,451
596,,,457
459,,,454
319,,,457
451,,,454
605,,,464
461,,,457
338,,,475
473,,,471
618,,,479
477,,,478
345,,,482
462,,,462
605,,,471
472,,,469
343,,,474
484,,,482
638,,,500
502,,,499
364,,,501
487,,,491
632,,,495
498,,,492
391,,,520
516,,,515
650,,,521
519,,,518
408,,,532
524,,,522
640,,,520
481,,,490
361,,,486
507,,,494
635,,,505
464,,,482
324,,,463
460,,,447
609,,,466
465,,,472
307,,,453
430,,,432
578,,,433
437,,,432
319,,,458
459,,,458
581,,,444
424,,,430
301,,,438
435,,,427
562,,,427
412,,,421
303,,,434
444,,,430
570,,,438
419,,,432
310,,,440
437,,,423
576,,,444
435,,,443
314,,,444
462,,,451
590,,,457
435,,,446
324,,,455
456,,,444
573,,,444
403,,,420
307,,,436
452,,,430
576,,,444
427,,,446
316,,,446
460,,,440
594,,,459
427,,,446
306,,,444
460,,,440
600,,,457
440,,,455
308,,,453
459,,,445
600,,,451
447,,,456
319,,,465
441,,,437
565,,,426
414,,,419
315,,,447
470,,,456
588,,,454
425,,,442
319,,,451
472,,,450
592,,,458
443,,,462
328,,,460
454,,,438
574,,,445
429,,,442
342,,,464
471,,,454
578,,,458
429,,,446
335,,,453
483,,,461
563,,,448
380,,,414
294,,,414
483,,,438
598,,,465
442,,,481
335,,,468
473,,,441
572,,,443
411,,,443
331,,,456
500,,,462
595,,,466
415,,,455
318,,,450
481,,,442
578,,,445
420,,,455
323,,,454
479,,,445
604,,,468
440,,,468
349,,,481
487,,,461
584,,,456
424,,,450
349,,,471
525,,,489
616,,,490
458,,,493
355,,,482
486,,,458
590,,,466
423,,,451
333,,,457
475,,,447
572,,,450
405,,,434
322,,,444
493,,,457
584,,,458
411,,,449
322,,,449
481,,,442
585,,,455
431,,,464
352,,,477
480,,,449
557,,,440
407,,,439
338,,,450
527,,,483
683,,,548
625,,,632
663,,,749
818,,,778
748,,,685
379,,,492
159,,,305
319,,,249
462,,,306
341,,,381
310,,,440
508,,,451
612,,,471
388,,,446
290,,,440
476,,,421
576,,,424
414,,,459
334,,,476
514,,,468
602,,,461
422,,,466
344,,,480
525,,,478
606,,,471
431,,,477
342,,,474
514,,,469
585,,,456
408,,,455
367,,,486
537,,,482
598,,,481
415,,,472
357,,,471
538,,,476
614,,,495
445,,,501
375,,,492
557,,,499
635,,,513
485,,,534
423,,,537
560,,,515
611,,,505
435,,,484
393,,,497
574,,,516
639,,,529
447,,,507
368,,,486
536,,,479
605,,,485
425,,,481
349,,,472
524,,,469
587,,,463
397,,,454
323,,,450
499,,,443
569,,,441
375,,,433
319,,,447
494,,,434
552,,,426
358,,,421
311,,,434
501,,,433
554,,,430
378,,,443
329,,,447
515,,,447
569,,,451
387,,,453
311,,,432
483,,,423
552,,,431
375,,,432
319,,,437
505,,,445
560,,,440
379,,,439
329,,,446
521,,,456
565,,,447
390,,,454
341,,,455
524,,,458
558,,,446
387,,,454
343,,,451
517,,,449
556,,,449
368,,,438
319,,,428
503,,,432
554,,,442
376,,,444
343,,,451
529,,,456
573,,,462
368,,,443
326,,,441
521,,,444
572,,,452
375,,,451
353,,,468
544,,,463
567,,,454
363,,,448
311,,,428
511,,,427
561,,,439
374,,,452
335,,,453
521,,,444
564,,,446
375,,,449
329,,,446
529,,,453
567,,,448
373,,,449
358,,,470
564,,,480
567,,,458
351,,,444
322,,,434
518,,,425
554,,,440
374,,,460
339,,,449
520,,,438
552,,,443
376,,,453
348,,,452
542,,,463
560,,,456
377,,,456
336,,,441
542,,,461
591,,,476
387,,,465
339,,,458
526,,,450
553,,,436
365,,,441
343,,,455
536,,,456
580,,,464
394,,,470
374,,,485
560,,,481
576,,,468
381,,,464
346,,,455
550,,,465
590,,,475
383,,,467
352,,,468
519,,,440
538,,,429
349,,,429
328,,,433
525,,,440
545,,,438
359,,,442
352,,,453
541,,,454
544,,,445
356,,,445
344,,,441
551,,,456
570,,,467
422,,,505
475,,,554
750,,,634
854,,,734
670,,,760
530,,,669
515,,,491
373,,,314
167,,,239
218,,,275
475,,,371
534,,,443
379,,,464
363,,,450
538,,,454
541,,,453
367,,,451
361,,,449
547,,,459
547,,,456
355,,,446
358,,,449
552,,,456
566,,,469
381,,,474
366,,,464
556,,,463
575,,,472
393,,,481
386,,,487
567,,,479
566,,,467
384,,,472
376,,,473
586,,,492
597,,,494
395,,,489
397,,,498
608,,,507
590,,,489
390,,,495
398,,,497
612,,,501
598,,,498
422,,,528
427,,,520
618,,,513
618,,,524
430,,,530
428,,,521
596,,,502
573,,,487
390,,,486
384,,,470
568,,,474
554,,,469
374,,,467
363,,,450
544,,,454
534,,,448
339,,,432
345,,,433
535,,,439
519,,,431
341,,,437
355,,,439
534,,,437
522,,,438
323,,,423
324,,,412
527,,,425
526,,,431
357,,,452
343,,,436
530,,,437
518,,,425
334,,,427
363,,,449
540,,,442
514,,,432
328,,,429
344,,,425
553,,,446
528,,,443
343,,,450
352,,,437
543,,,436
529,,,441
358,,,459
375,,,458
542,,,444
505,,,428
330,,,429
362,,,434
554,,,449
523,,,448
332,,,439
350,,,427
561,,,449
531,,,448
343,,,454
374,,,454
544,,,435
521,,,443
340,,,445
350,,,429
549,,,443
534,,,449
347,,,450
358,,,444
550,,,447
527,,,440
340,,,442
370,,,453
559,,,454
511,,,432
329,,,437
371,,,445
573,,,458
519,,,445
320,,,440
360,,,434
552,,,431
516,,,440
341,,,456
377,,,449
569,,,453
521,,,449
340,,,455
378,,,448
572,,,455
524,,,452
348,,,462
377,,,449
571,,,457
532,,,457
359,,,469
397,,,468
583,,,472
531,,,461
348,,,460
382,,,452
573,,,460
521,,,450
345,,,457
382,,,451
572,,,458
517,,,448
315,,,434
359,,,430
567,,,443
519,,,443
323,,,447
364,,,441
553,,,430
496,,,421
340,,,456
383,,,450
573,,,456
530,,,460
369,,,479
506,,,552
765,,,620
784,,,704
656,,,768
616,,,699
613,,,555
362,,,360
105,,,230
197,,,219
476,,,323
472,,,408
318,,,447
383,,,441
588,,,454
536,,,469
332,,,464
375,,,448
581,,,449
519,,,442
331,,,460
371,,,448
571,,,444
525,,,444
357,,,475
408,,,482
590,,,473
530,,,460
362,,,475
428,,,489
618,,,500
540,,,482
361,,,481
424,,,479
612,,,489
524,,,472
351,,,477
433,,,480
621,,,489
549,,,499
381,,,509
453,,,500
645,,,514
576,,,524
423,,,547
482,,,530
690,,,561
577,,,529
384,,,522
447,,,500
623,,,489
547,,,494
378,,,508
438,,,490
614,,,487
511,,,463
332,,,463
406,,,454
593,,,461
499,,,451
323,,,455
378,,,430
558,,,430
490,,,435
311,,,436
369,,,426
543,,,421
454,,,401
298,,,418
378,,,424
548,,,426
467,,,422
323,,,439
389,,,430
564,,,447
473,,,432
315,,,433
399,,,436
597,,,470
502,,,460
313,,,446
378,,,427
565,,,432
476,,,425
323,,,451
399,,,445
567,,,440
478,,,434
322,,,447
390,,,433
563,,,439
485,,,439
330,,,449
403,,,445
581,,,460
494,,,450
312,,,437
390,,,436
576,,,446
498,,,447
323,,,451
386,,,438
560,,,434
470,,,420
319,,,442
400,,,443
574,,,449
479,,,437
320,,,445
391,,,432
568,,,442
499,,,453
351,,,469
410,,,454
575,,,459
472,,,432
312,,,432
407,,,443
583,,,456
472,,,438
307,,,439
396,,,429
568,,,434
466,,,432
335,,,462
449,,,471
610,,,477
496,,,474
329,,,465
423,,,448
589,,,453
481,,,454
357,,,485
447,,,469
596,,,471
476,,,457
319,,,447
413,,,435
584,,,453
471,,,446
324,,,454
412,,,438
582,,,451
454,,,429
310,,,442
429,,,448
604,,,465
466,,,447
291,,,437
395,,,419
576,,,428
470,,,439
327,,,466
426,,,454
583,,,448
496,,,464
429,,,539
635,,,627
880,,,727
775,,,757
520,,,686
427,,,506
432,,,344
268,,,242
161,,,258
329,,,331
551,,,420
477,,,450
334,,,456
424,,,450
566,,,446
462,,,437
328,,,445
434,,,453
587,,,465
472,,,452
337,,,459
468,,,479
604,,,477
458,,,454
321,,,453
443,,,444
618,,,477
484,,,477
326,,,471
439,,,450
601,,,455
487,,,470
355,,,493
479,,,491
639,,,498
504,,,491
347,,,490
479,,,491
654,,,504
530,,,512
373,,,520
493,,,510
635,,,492
512,,,496
387,,,522
503,,,514
664,,,527
518,,,508
391,,,526
503,,,511
626,,,497
489,,,486
351,,,480
465,,,469
598,,,472
485,,,479
342,,,466
432,,,445
560,,,443
422,,,414
291,,,411
434,,,435
585,,,455
447,,,444
300,,,435
414,,,421
563,,,427
425,,,417
305,,,438
454,,,452
594,,,455
425,,,432
287,,,432
408,,,405
560,,,415
432,,,429
308,,,446
447,,,445
583,,,444
432,,,436
294,,,434
428,,,425
582,,,439
434,,,434
306,,,446
452,,,447
599,,,455
456,,,458
310,,,453
428,,,431
575,,,435
444,,,437
328,,,460
437,,,442
571,,,443
433,,,429
320,,,444
451,,,449
577,,,452
431,,,436
317,,,441
454,,,444
587,,,459
447,,,455
331,,,458
457,,,448
574,,,448
423,,,435
310,,,436
438,,,425
585,,,454
441,,,449
311,,,444
444,,,437
576,,,441
436,,,440
315,,,448
454,,,447
578,,,444
436,,,443
339,,,466
473,,,461
590,,,463
418,,,436
303,,,435
454,,,433
587,,,449
441,,,457
329,,,464
471,,,454
584,,,450
436,,,453
319,,,451
463,,,446
604,,,467
466,,,474
357,,,488
481,,,473
589,,,463
441,,,452
320,,,447
459,,,448
587,,,457
428,,,440
308,,,440
450,,,438
580,,,445
445,,,452
326,,,457
451,,,446
570,,,441
420,,,427
309,,,437
457,,,445
579,,,448
426,,,438
327,,,455
466,,,449
591,,,461
496,,,500
511,,,604
780,,,721
897,,,769
663,,,728
365,,,547
335,,,353
391,,,266
281,,,272
239,,,341
444,,,420
591,,,463
428,,,447
310,,,442
454,,,436
575,,,441
418,,,435
318,,,450
471,,,449
586,,,452
437,,,457
342,,,471
498,,,472
600,,,470
440,,,467
345,,,473
501,,,471
610,,,480
440,,,471
340,,,471
498,,,465
587,,,458
432,,,465
348,,,471
513,,,475
617,,,489
462,,,496
383,,,506
542,,,503
629,,,506
470,,,508
396,,,515
574,,,529
650,,,528
462,,,512
370,,,497
548,,,498
638,,,507
477,,,522
385,,,514
527,,,488
609,,,485
447,,,484
357,,,481
503,,,469
586,,,465
421,,,456
332,,,453
480,,,447
572,,,451
407,,,439
336,,,454
474,,,441
543,,,431
375,,,413
298,,,412
471,,,428
557,,,437
383,,,427
308,,,429
477,,,430
563,,,438
382,,,429
307,,,433
482,,,431
586,,,453
413,,,458
321,,,454
494,,,449
581,,,446
406,,,450
313,,,448
468,,,428
555,,,423
379,,,419
321,,,446
494,,,447
570,,,444
394,,,442
317,,,442
482,,,434
559,,,435
410,,,453
349,,,463
515,,,467
586,,,471
401,,,452
307,,,429
478,,,430
563,,,438
385,,,431
314,,,438
487,,,438
576,,,448
403,,,448
329,,,455
496,,,449
558,,,436
385,,,435
342,,,457
516,,,458
571,,,457
404,,,462
334,,,448
479,,,427
550,,,439
385,,,434
346,,,451
511,,,456
576,,,468
386,,,444
324,,,437
515,,,452
574,,,456
383,,,447
329,,,448
517,,,449
589,,,464
402,,,466
332,,,459
493,,,435
555,,,432
399,,,451
353,,,466
521,,,465
570,,,459
380,,,441
352,,,460
550,,,478
604,,,490
419,,,490
356,,,473
531,,,463
583,,,466
405,,,471
339,,,457
513,,,450
565,,,447
385,,,447
317,,,437
498,,,438
558,,,436
379,,,438
328,,,448
518,,,454
567,,,445
381,,,446
332,,,452
506,,,440
548,,,431
377,,,442
371,,,475
547,,,472
573,,,471
428,,,497
511,,,582
818,,,697
898,,,784
638,,,754
386,,,557
375,,,351
343,,,237
213,,,248
250,,,329
507,,,432
583,,,474
398,,,465
329,,,444
511,,,448
550,,,435
383,,,444
342,,,453
519,,,455
565,,,452
387,,,450
345,,,456
531,,,464
576,,,463
402,,,467
364,,,473
539,,,472
584,,,474
425,,,487
383,,,488
564,,,499
574,,,472
374,,,450
349,,,452
554,,,469
588,,,478
417,,,497
394,,,498
574,,,492
603,,,499
439,,,516
408,,,508
582,,,506
623,,,520
468,,,535
439,,,536
615,,,545
638,,,540
418,,,498
369,,,479
571,,,490
587,,,475
403,,,485
377,,,487
532,,,454
548,,,446
360,,,440
343,,,443
531,,,447
560,,,456
371,,,453
338,,,444
529,,,446
539,,,434
342,,,429
319,,,425
518,,,429
543,,,434
360,,,445
327,,,435
503,,,422
523,,,417
350,,,428
327,,,429
513,,,433
540,,,436
358,,,436
339,,,440
515,,,436
541,,,439
367,,,443
338,,,438
529,,,451
543,,,442
363,,,441
360,,,455
527,,,446
530,,,439
349,,,433
327,,,419
521,,,434
547,,,447
364,,,447
343,,,444
532,,,447
548,,,445
369,,,452
351,,,452
551,,,464
553,,,451
361,,,451
343,,,445
523,,,435
517,,,420
342,,,431
345,,,436
538,,,444
539,,,446
363,,,455
349,,,441
539,,,447
552,,,455
365,,,454
359,,,455
553,,,461
549,,,452
388,,,475
375,,,467
525,,,445
516,,,432
339,,,421
343,,,424
539,,,450
533,,,448
350,,,440
348,,,433
540,,,446
535,,,447
355,,,448
360,,,447
546,,,450
551,,,460
355,,,451
359,,,451
580,,,475
591,,,488
375,,,481
333,,,448
536,,,438
540,,,425
366,,,458
382,,,485
579,,,482
559,,,460
368,,,467
366,,,462
561,,,462
542,,,449
359,,,458
366,,,455
564,,,462
549,,,459
345,,,450
334,,,429
523,,,423
517,,,422
339,,,435
351,,,440
545,,,446
524,,,436
344,,,442
365,,,447
562,,,459
533,,,451
359,,,461
391,,,466
631,,,513
688,,,585
638,,,710
724,,,780
822,,,746
607,,,601
222,,,383
143,,,225
379,,,239
445,,,332
323,,,423
363,,,453
555,,,449
525,,,435
356,,,458
390,,,471
570,,,466
528,,,451
347,,,452
375,,,449
561,,,454
530,,,454
346,,,452
377,,,451
576,,,465
549,,,470
368,,,476
395,,,472
579,,,471
549,,,470
384,,,487
402,,,478
586,,,484
547,,,471
379,,,480
420,,,490
609,,,502
580,,,506
413,,,516
433,,,505
587,,,490
562,,,493
408,,,500
458,,,519
638,,,538
580,,,519
400,,,506
451,,,511
648,,,533
600,,,535
408,,,526
420,,,493
589,,,479
534,,,465
358,,,470
395,,,464
575,,,463
505,,,440
315,,,433
361,,,427
557,,,435
512,,,441
323,,,444
353,,,427
547,,,427
509,,,432
332,,,447
369,,,444
537,,,426
487,,,417
311,,,420
369,,,433
565,,,448
498,,,434
313,,,433
