341
505
546
478
423
456
498
525
485
474
514
554
497
468
500
552
531
494
496
530
517
503
487
495
478
477
468
466
439
437
431
456
454
441
422
433
435
450
438
438
434
446
434
442
436
428
427
435
429
438
446
442
425
438
432
447
443
448
436
449
448
464
438
441
432
436
435
450
432
441
447
446
441
453
440
451
453
463
457
464
440
438
422
435
440
451
446
454
441
446
441
450
446
458
455
462
454
467
451
451
439
442
430
442
448
461
453
450
445
464
462
476
450
452
450
469
470
467
442
442
441
462
464
467
454
465
467
486
492
500
486
471
446
458
473
472
448
434
427
441
451
460
443
450
451
449
430
448
467
476
460
448
472
533
648
770
776
668
487
311
234
302
388
453
458
457
452
454
447
451
450
456
455
458
456
468
458
471
462
473
482
478
476
489
472
484
479
497
489
500
470
483
494
516
508
514
508
517
516
528
513
515
511
523
516
495
470
462
440
446
437
442
432
445
440
430
436
459
459
460
441
436
436
434
419
431
430
445
444
440
426
443
437
441
445
451
452
457
441
438
445
457
435
438
432
435
437
454
447
439
442
440
433
452
460
461
461
448
440
441
441
447
438
442
439
454
446
457
442
455
461
454
448
454
445
457
448
448
443
460
459
453
442
451
451
456
457
455
454
457
448
455
457
476
455
451
434
446
458
463
454
456
448
460
468
472
467
469
452
452
465
474
476
482
493
493
474
454
449
473
471
469
452
428
436
464
459
448
445
449
450
454
456
452
457
475
473
498
564
684
781
768
666
443
280
251
297
380
453
467
450
453
455
460
457
465
456
447
446
463
470
476
475
475
471
473
473
485
483
482
479
472
472
493
514
504
502
502
502
519
522
523
515
533
530
525
519
500
499
496
495
478
462
451
437
437
456
447
439
436
435
442
448
439
440
440
438
429
420
414
420
428
434
436
450
449
442
439
438
438
451
444
448
450
435
433
436
433
440
445
435
443
458
458
457
440
430
435
446
456
451
438
443
433
434
444
438
439
445
450
464
460
456
441
441
441
465
444
439
435
438
440
455
453
447
452
452
436
444
449
458
463
464
454
447
449
460
456
463
467
470
469
469
467
451
445
445
434
449
447
445
435
431
434
439
438
439
433
443
451
463
460
488
535
623
748
783
671
483
282
204
261
375
429
444
448
451
448
456
449
453
456
461
453
459
458
461
456
462
464
468
473
473
481
487
477
479
480
491
500
502
488
502
498
512
520
520
513
518
519
531
525
515
492
480
492
488
481
463
451
444
444
445
433
433
424
433
422
431
427
438
430
440
445
453
437
426
414
422
432
448
445
436
436
443
437
442
438
459
452
448
447
458
451
448
431
436
423
438
443
446
445
455
440
430
439
464
458
456
433
441
446
452
446
449
432
448
449
456
449
454
439
442
444
454
452
449
458
459
451
450
451
453
451
462
450
465
472
480
459
464
461
471
461
465
452
447
435
446
427
435
436
444
437
453
446
451
440
470
449
472
483
564
676
739
721
592
387
278
249
313
388
458
458
459
451
457
457
477
466
458
445
446
444
465
456
464
460
469
466
478
483
495
488
505
496
495
484
479
462
490
505
518
503
511
504
518
520
526
521
532
530
518
464
449
442
460
457
460
425
432
432
444
432
446
445
450
430
438
436
444
430
425
406
425
435
442
429
439
435
446
435
441
441
460
468
475
434
427
408
425
436
454
439
435
432
452
450
457
441
458
458
474
476
467
430
435
431
432
435
449
442
458
450
458
429
445
459
465
451
451
439
445
447
449
439
442
444
458
444
454
454
455
449
463
460
475
476
487
465
461
450
447
443
451
440
440
435
445
442
448
438
451
449
463
453
463
439
450
448
452
466
544
629
722
775
682
484
326
249
303
406
469
453
437
428
445
427
448
449
466
464
454
432
455
467
480
456
471
465
480
480
482
475
474
467
473
467
496
506
507
491
498
490
509
515
532
524
537
524
501
493
490
473
485
469
462
456
463
443
445
434
439
442
455
449
441
418
417
412
425
431
441
425
441
434
439
437
439
443
448
456
474
435
441
412
418
435
451
438
433
430
450
443
456
449
452
459
480
461
445
427
421
428
440
435
438
438
453
445
446
437
447
456
475
454
452
448
447
447
453
429
431
430
445
448
455
455
461
450
463
456
453
448
442
432
450
436
445
439
463
478
485
472
471
459
462
461
452
447
468
440
444
435
429
426
428
424
435
440
451
439
443
452
456
463
518
598
717
792
734
557
353
221
245
336
433
453
446
439
452
457
480
455
465
454
455
448
452
453
450
451
459
451
470
477
477
488
498
495
494
473
478
467
487
501
499
500
506
510
516
519
535
520
528
512
505
484
471
458
452
453
458
443
447
441
442
442
438
439
438
429
442
420
420
415
422
430
449
439
424
423
442
433
444
440
442
451
466
437
425
413
420
445
454
445
441
434
452
448
447
437
437
447
464
452
446
446
440
423
429
433
447
463
452
442
440
442
454
455
450
457
463
452
450
434
431
433
443
451
445
447
448
447
445
456
462
474
476
456
452
453
458
470
473
467
472
473
461
446
450
453
451
443
447
454
459
446
431
424
421
444
454
453
453
450
452
461
504
610
738
793
737
567
341
236
268
338
422
456
454
454
461
449
442
442
463
464
452
458
460
464
472
466
464
472
471
476
475
471
469
476
475
488
500
504
504
505
511
517
518
517
519
520
523
525
515
502
492
497
493
481
469
465
468
458
435
429
416
423
428
432
428
432
433
440
430
425
431
432
434
443
452
440
438
441
432
449
449
455
443
433
424
432
447
451
453
447
451
445
452
452
441
439
431
443
451
455
452
439
429
442
452
450
448
450
455
464
462
437
424
441
455
457
443
433
442
456
459
458
451
468
481
487
454
462
461
472
473
457
436
434
438
450
441
444
432
440
442
459
455
457
441
437
437
448
441
448
444
476
522
629
739
774
708
514
303
248
288
355
415
431
414
445
455
448
430
450
462
466
466
492
490
486
461
463
458
481
475
466
461
484
475
487
478
482
491
514
513
509
503
522
523
536
529
528
527
552
532
512
482
486
509
489
470
457
443
460
447
434
415
425
431
433
428
437
427
442
418
419
407
430
432
434
418
419
422
443
433
432
434
444
437
442
429
450
452
454
430
428
415
425
426
436
436
458
444
451
429
433
432
445
447
451
427
431
434
440
442
441
423
438
440
449
444
467
465
453
437
435
430
460
457
466
456
465
459
451
441
452
443
465
448
429
416
428
422
440
434
436
431
435
430
434
444
460
446
471
522
639
744
768
661
469
273
237
276
365
437
447
444
470
466
456
425
429
432
460
452
461
457
465
452
470
462
481
490
495
476
496
492
490
470
478
470
486
508
512
504
513
508
524
526
536
524
530
525
518
505
489
454
460
446
452
449
441
428
442
436
438
430
441
438
452
438
439
412
420
425
433
420
432
432
440
435
439
421
433
435
447
435
443
446
462
456
456
441
431
430
453
447
451
438
433
438
460
448
452
457
458
449
462
429
442
440
451
443
448
440
445
442
447
434
443
443
473
467
453
431
437
442
467
457
443
435
451
460
463
448
454
469
479
476
477
463
467
456
469
435
456
448
446
436
451
445
453
442
454
449
462
442
440
443
444
450
465
469
541
661
771
784
671
457
281
234
302
392
459
447
446
445
455
448
449
445
457
461
474
477
486
475
471
460
465
461
468
465
479
478
487
478
484
485
490
497
531
532
531
502
495
504
535
528
515
489
505
503
500
488
471
468
477
466
464
462
467
450
441
414
411
425
446
446
447
432
434
424
436
440
446
441
442
438
446
442
443
436
437
438
445
429
434
434
451
453
451
447
443
446
458
462
463
443
437
433
436
443
457
448
453
451
463
465
461
461
457
454
465
448
443
423
434
440
454
459
456
452
462
452
450
457
469
478
472
449
441
429
455
457
448
444
453
449
458
464
462
465
478
481
488
486
495
483
464
446
453
444
451
451
438
439
448
453
450
440
445
449
457
468
472
458
454
448
444
468
540
658
776
790
670
467
287
245
316
399
453
461
474
454
453
446
446
451
454
450
441
458
485
475
465
461
471
472
487
485
487
480
487
488
482
484
483
492
505
510
513
506
504
520
541
530
532
519
505
506
505
494
483
465
457
453
446
451
452
447
448
441
437
426
436
438
426
432
434
428
430
425
436
459
462
450
442
435
441
444
445
436
447
448
441
435
445
451
452
450
445
450
452
454
459
454
451
448
437
433
441
450
445
443
445
446
443
455
469
467
455
439
427
433
451
458
442
445
452
458
449
444
433
449
462
456
448
447
435
456
451
456
452
448
451
453
458
472
450
451
452
457
474
470
473
477
475
482
464
457
456
461
460
450
438
436
440
442
438
443
449
445
441
440
435
452
459
458
455
477
540
638
752
795
692
503
302
227
273
373
443
458
449
454
454
457
444
461
462
470
464
455
457
456
461
473
475
481
471
473
471
483
481
488
480
488
487
506
514
507
499
498
492
518
542
536
519
510
506
511
505
500
475
463
456
476
465
457
448
430
412
429
429
423
423
428
423
425
431
436
432
455
447
446
429
428
426
437
433
432
420
429
437
450
442
442
439
451
448
463
465
451
436
434
425
428
434
442
431
446
444
445
438
456
449
449
462
457
427
435
425
433
445
451
426
442
444
456
452
452
444
449
455
453
444
444
428
439
441
458
443
447
448
463
458
487
479
482
464
453
437
445
443
444
422
432
438
448
428
431
432
449
445
451
446
446
460
454
439
463
510
619
742
781
682
492
285
211
259
374
439
445
433
446
458
467
447
442
441
455
455
466
457
467
465
473
467
478
473
489
480
486
486
482
468
486
480
493
497
517
514
520
529
540
529
518
508
522
505
524
505
496
497
489
476
442
439
463
447
446
420
413
414
437
436
434
422
433
426
433
435
437
429
445
431
440
440
438
428
444
439
443
435
435
437
453
449
455
448
443
444
449
437
447
449
450
440
439
431
439
438
452
451
453
441
451
435
444
442
456
455
476
449
447
431
435
434
451
439
444
447
458
452
459
446
453
440
438
432
455
459
466
448
455
447
453
450
441
442
470
468
473
466
488
487
485
457
446
436
446
438
446
438
448
442
450
432
449
449
440
440
452
451
478
461
456
486
572
687
756
741
596
392
283
266
326
421
483
449
437
436
445
437
454
444
455
454
471
464
459
450
465
475
489
481
485
460
462
467
485
484
484
486
500
482
495
497
503
508
531
523
511
495
510
519
529
519
494
456
461
464
468
456
453
438
440
426
432
432
440
435
441
436
448
431
432
417
433
421
441
435
435
438
448
422
432
434
452
459
442
435
438
424
444
443
438
433
445
438
437
439
449
433
445
444
453
454
458
447
445
437
440
446
444
442
441
428
448
454
468
460
449
444
449
442
457
435
442
435
450
456
462
449
465
452
450
438
446
446
462
458
464
455
453
450
466
483
509
499
464
447
452
443
452
437
439
454
463
451
437
425
443
448
453
446
448
452
464
465
466
491
559
639
738
775
683
479
297
227
278
378
456
447
448
458
462
459
448
445
455
452
448
458
471
455
449
463
487
495
493
484
464
462
478
472
478
487
509
491
496
514
523
535
522
517
523
516
539
538
525
500
493
481
471
464
460
444
456
466
450
428
428
430
451
447
429
421
415
421
435
436
429
419
421
426
443
448
444
432
437
450
454
439
430
425
433
435
442
449
440
443
443
449
441
451
444
436
435
446
449
453
446
442
429
427
439
438
441
444
446
441
437
433
442
450
464
463
449
443
437
453
453
445
445
452
471
487
469
455
451
441
447
461
453
437
434
428
434
452
443
428
424
436
440
445
437
453
458
461
501
551
652
754
743
616
409
232
206
290
400
458
450
437
443
465
454
448
450
456
465
464
469
469
461
459
451
459
467
473
475
479
482
486
478
492
501
503
499
498
499
517
503
504
499
505
520
522
512
510
504
494
482
496
484
464
443
431
429
445
442
428
423
435
426
435
427
434
431
439
435
443
435
425
429
435
433
435
431
437
433
441
444
453
440
450
442
440
444
452
447
447
443
442
428
441
449
468
447
451
428
429
439
446
441
456
446
450
445
445
431
444
450
469
448
440
428
442
446
464
448
441
448
457
445
448
460
467
475
475
457
467
455
449
445
458
449
453
435
426
434
450
446
449
437
454
451
449
446
457
450
495
551
616
707
750
655
489
309
235
268
396
465
471
438
447
452
452
450
450
447
465
458
456
443
458
467
462
469
496
481
479
469
471
472
484
481
486
484
497
496
493
484
500
504
517
523
530
509
517
516
515
496
487
455
461
461
462
440
439
433
445
435
437
433
459
450
453
428
434
423
444
449
438
424
434
422
439
450
451
426
435
432
444
455
460
448
444
437
443
439
448
438
453
434
442
431
437
452
458
453
450
438
448
455
454
433
445
437
449
449
457
444
453
449
447
444
456
467
468
446
449
426
446
451
463
456
453
451
467
460
474
471
479
467
473
478
465
458
448
430
435
435
449
440
446
445
453
446
453
446
449
442
459
461
480
500
570
662
736
723
600
389
262
250
325
412
468
454
450
458
461
457
467
451
458
445
454
449
460
455
467
459
473
464
470
465
488
484
493
480
480
476
499
484
487
489
514
523
531
509
506
498
521
524
520
500
502
469
472
460
464
453
453
437
440
429
437
433
448
441
451
436
435
431
435
427
422
424
443
431
437
424
430
440
460
445
446
434
443
456
459
434
444
427
439
444
443
426
440
442
448
445
455
447
452
459
470
460
449
437
442
430
449
434
438
444
450
445
446
430
449
458
469
463
463
438
441
436
447
445
446
440
453
444
460
455
454
455
469
467
485
475
475
472
463
462
463
447
453
440
442
433
438
436
456
457
451
452
458
449
445
436
437
452
467
469
521
614
729
793
701
503
327
233
263
359
445
467
457
437
434
445
459
464
460
450
458
464
466
461
480
471
466
466
458
469
486
480
481
476
479
485
498
492
484
494
508
510
531
539
535
526
514
495
500
500
501
480
477
460
463
461
455
449
448
440
452
460
450
436
423
424
426
429
431
416
429
435
439
435
435
432
441
451
454
448
438
435
444
443
444
443
431
433
437
431
437
444
452
459
459
453
442
435
447
447
460
450
433
432
442
450
448
453
442
444
440
450
462
466
465
448
448
438
440
442
441
445
455
456
445
434
441
442
443
458
465
461
460
462
454
468
464
462
465
460
477
475
457
449
438
446
454
451
448
449
445
456
449
442
442
440
431
429
429
435
456
459
472
529
633
740
775
705
500
321
239
268
355
443
457
441
427
440
444
449
446
456
458
463
461
467
468
484
474
461
447
455
462
469
476
481
484
485
486
484
492
502
506
509
506
504
505
512
526
519
507
509
487
487
490
491
476
471
467
460
445
450
445
433
425
424
423
439
429
428
424
435
440
444
425
423
430
443
448
444
437
444
434
444
443
447
448
441
435
436
437
452
456
452
450
450
436
428
424
429
441
449
451
449
439
446
452
454
449
462
450
446
437
436
437
442
438
446
437
450
450
449
450
469
456
450
442
437
443
454
444
449
458
479
474
477
465
472
457
447
441
435
438
453
450
445
434
436
427
448
460
448
436
430
431
454
458
458
455
497
574
690
769
758
586
387
250
244
302
398
436
442
454
476
452
439
439
462
459
463
449
447
441
478
486
475
468
467
462
476
482
490
483
481
488
491
497
514
501
510
504
521
529
536
521
522
515
509
497
506
491
494
486
480
452
457
438
443
435
445
431
435
429
432
426
430
425
436
430
434
434
436
428
445
436
437
435
441
437
443
434
446
438
449
448
453
439
444
447
450
446
457
446
443
442
449
431
443
444
452
449
454
440
437
434
455
444
454
438
435
443
455
441
444
435
445
442
460
447
459
445
457
459
476
475
485
468
462
444
446
439
448
443
444
431
445
437
447
437
450
451
456
433
432
423
445
444
466
481
548
644
762
760
643
436
262
211
303
386
443
445
436
441
468
451
448
446
461
457
459
470
470
461
480
459
493
489
486
473
474
479
488
485
499
490
510
513
512
500
513
521
532
522
530
508
521
520
525
504
504
497
490
466
462
448
461
454
455
440
439
435
441
431
431
417
423
421
438
428
431
421
430
431
444
434
434
431
444
438
437
432
447
446
443
442
437
440
456
440
445
439
443
449
448
452
458
461
448
432
429
424
448
448
453
440
441
444
444
443
451
452
461
448
453
452
451
433
432
426
437
450
460
453
456
446
455
450
464
462
484
476
479
468
459
437
438
434
442
432
441
435
433
439
451
440
448
446
450
436
454
445
448
443
464
509
612
740
773
684
517
312
225
260
372
456
489
466
453
429
432
439
449
454
464
455
452
445
461
466
467
457
480
475
482
487
492
476
485
471
476
474
494
497
501
502
509
505
510
510
522
529
520
515
492
490
505
496
485
450
427
430
446
452
448
431
433
430
432
427
443
449
447
439
443
425
433
435
424
414
433
439
445
434
444
427
434
444
451
441
452
454
446
439
438
436
453
456
449
443
437
433
445
440
444
447
452
438
440
452
455
449
440
428
442
445
451
446
443
441
444
442
449
452
461
452
457
466
459
451
440
425
440
438
445
447
455
452
458
461
482
485
485
474
470
461
454
454
451
433
432
424
428
437
448
445
444
445
445
439
448
457
461
443
437
456
522
620
733
772
689
514
308
220
265
369
453
462
444
440
453
453
443
429
438
461
469
470
461
442
449
463
470
475
471
477
480
471
476
492
486
499
493
483
487
493
505
509
511
515
509
526
516
516
518
498
498
502
489
470
460
447
444
446
445
432
425
436
437
435
435
434
434
441
440
432
421
421
419
436
446
439
430
425
432
446
441
434
428
433
443
453
439
438
426
440
452
441
431
438
431
443
445
444
436
445
451
454
445
444
446
464
453
447
425
430
433
453
452
439
442
452
433
443
449
462
466
466
438
434
435
447
444
445
446
450
451
462
453
461
459
458
446
458
460
469
472
475
476
477
469
460
455
457
441
444
444
445
448
455
444
444
444
452
435
444
438
453
447
451
448
478
544
659
759
793
670
484
295
233
278
393
446
464
444
455
446
441
437
447
449
463
460
462
462
477
462
469
467
481
485
482
470
470
470
481
477
491
488
499
492
511
520
532
521
520
513
518
510
530
508
500
494
497
475
480
475
450
442
453
444
452
445
441
443
451
430
425
410
423
439
452
436
440
441
454
452
455
449
446
446
451
443
451
439
452
439
448
466
486
475
456
409
407
429
477
486
459
422
443
474
523
480
452
444
479
507
471
404
381
391
462
467
437
420
449
490
491
451
444
429
457
461
450
422
422
449
462
468
461
429
440
429
445
462
486
466
477
462
459
469
486
490
467
437
460
460
457
467
454
426
441
440
454
446
429
421
442
471
496
450
437
413
459
556
732
841
782
623
357
188
246
363
441
446
443
425
447
465
481
499
517
486
445
417
463
502
500
478
465
458
483
495
522
513
504
465
457
479
507
495
504
500
521
537
552
535
536
522
534
511
503
477
487
493
510
503
488
464
464
447
436
431
447
441
438
410
416
425
448
438
430
435
445
425
447
440
442
440
444
423
433
425
434
432
448
455
466
449
456
442
440
434
451
454
457
436
453
444
445
435
448
432
449
453
454
441
459
445
448
439
455
438
441
433
452
447
459
439
436
444
472
453
445
434
429
445
456
452
445
435
456
451
459
455
465
456
485
473
460
425
433
454
474
472
471
436
445
446
455
439
449
449
430
421
432
439
446
438
435
421
437
450
472
445
456
483
561
693
783
716
554
327
211
241
353
431
474
442
443
451
454
439
430
433
456
456
460
453
479
469
465
449
450
456
489
471
480
481
486
489
483
471
488
490
511
498
489
491
515
527
524
501
493
484
516
510
494
470
457
437
457
456
452
439
442
423
427
429
440
426
435
439
436
425
437
428
421
431
448
436
439
430
429
415
443
441
443
444
448
445
451
447
451
438
433
436
452
443
443
425
438
435
455
444
447
444
470
472
472
443
438
422
432
448
456
447
446
435
452
446
457
442
453
455
467
453
461
454
458
439
438
433
443
450
457
443
447
449
471
464
477
474
477
481
463
459
436
427
432
417
418
426
436
437
440
438
443
450
454
446
441
431
448
457
467
475
524
636
774
803
702
505
317
250
314
393
452
467
464
447
434
448
447
445
455
448
456
468
469
462
457
458
464
469
479
478
483
482
477
466
471
470
480
494
499
494
497
509
520
521
524
513
517
510
499
504
509
488
470
458
457
456
457
434
424
434
443
438
428
437
455
441
427
422
419
423
429
426
415
440
451
437
423
426
433
438
444
446
435
433
429
427
435
437
442
453
456
455
457
466
458
464
458
431
438
451
454
446
438
445
436
438
432
436
440
445
446
459
473
456
440
451
450
464
459
438
423
448
473
462
451
461
469
469
472
492
499
497
486
464
463
472
476
474
480
497
498
484
468
466
468
468
451
437
427
431
423
437
447
458
446
446
433
442
448
469
485
470
502
572
673
778
749
578
350
215
240
341
417
455
449
442
454
451
422
439
455
460
469
459
456
465
466
480
459
479
482
474
488
475
469
469
467
489
480
493
491
500
505
498
509
522
505
515
505
513
531
542
494
484
473
468
461
460
434
437
452
457
443
441
431
420
427
450
444
455
425
424
421
430
421
435
435
437
444
441
431
439
429
432
425
445
439
428
414
406
409
439
431
441
430
444
434
437
421
429
440
460
446
454
440
444
443
447
435
452
457
462
445
454
453
451
451
454
449
464
464
465
462
467
457
471
456
467
468
471
445
451
447
453
444
444
424
437
442
454
437
443
439
435
427
437
435
453
446
476
515
614
724
779
680
491
276
208
254
385
456
475
443
446
441
436
439
454
457
465
446
458
477
480
456
452
438
462
476
491
469
474
474
469
463
492
498
503
507
519
498
517
508
507
500
513
502
510
502
500
479
489
480
482
474
451
421
428
432
444
442
438
424
440
433
436
421
426
424
434
429
443
428
435
434
452
447
443
424
427
425
454
449
437
431
444
438
449
440
439
442
452
448
454
449
454
440
437
429
437
447
454
440
440
443
452
441
446
443
455
445
449
441
449
459
463
433
440
446
466
461
474
456
465
455
467
455
461
449
448
436
433
422
432
427
435
426
435
427
439
444
450
448
454
446
492
565
699
778
744
577
356
223
243
322
420
451
450
442
455
444
449
455
464
465
449
445
463
466
472
451
458
455
484
497
476
465
472
474
499
500
511
478
487
493
504
499
512
511
517
517
527
509
508
504
504
497
524
497
487
445
438
432
439
444
427
421
435
432
444
428
432
429
440
455
457
441
442
437
440
429
430
420
432
445
443
437
449
447
451
439
447
442
463
455
449
444
438
432
439
439
439
449
450
442
450
446
448
449
454
452
446
448
450
447
450
443
447
440
438
444
447
457
461
463
465
453
470
481
487
487
491
467
442
427
430
429
435
439
441
440
450
451
446
438
449
448
447
439
455
448
465
507
614
733
801
712
514
315
230
268
377
446
466
454
445
435
442
445
452
451
453
455
464
457
466
473
479
476
475
475
470
471
470
458
466
485
500
487
481
497
512
523
519
507
501
507
523
524
520
517
501
488
472
473
458
455
449
453
450
444
447
440
430
424
397
414
440
466
461
432
415
416
434
441
428
436
439
433
432
442
457
467
458
440
435
445
446
431
438
459
456
455
444
427
445
455
442
438
440
457
455
457
455
442
441
455
452
444
443
442
446
457
454
458
449
447
462
476
473
476
462
462
459
460
447
449
455
466
446
435
427
440
451
464
458
443
431
426
429
449
459
459
480
557
676
774
768
666
456
290
229
281
360
445
464
445
444
446
453
464
474
478
465
476
477
475
472
470
455
472
474
492
488
494
488
487
486
501
498
504
512
517
517
530
522
517
519
537
534
530
512
516
507
502
493
477
458
476
464
461
455
449
452
456
441
448
438
442
436
440
432
422
425
449
457
453
443
445
447
475
474
464
448
455
451
457
457
463
452
453
449
461
459
457
452
458
457
477
467
455
447
447
449
465
454
465
473
470
461
470
457
481
482
479
469
485
494
493
463
444
435
462
461
463
461
460
468
476
456
459
451
459
460
472
453
457
454
472
500
571
648
750
785
715
510
329
227
266
357
445
462
448
446
473
456
464
472
479
477
489
482
481
480
497
506
506
488
493
485
492
491
494
482
497
498
510
505
532
548
543
529
525
523
547
542
538
532
535
526
511
490
497
483
483
464
452
451
464
446
444
436
442
444
449
437
442
433
448
445
444
439
441
427
449
451
447
442
439
441
467
469
463
451
448
452
472
468
474
446
445
446
444
442
443
429
451
463
474
456
460
456
470
467
465
444
448
446
457
454
457
453
463
461
472
469
478
480
481
461
458
431
431
433
446
443
450
442
450
445
447
445
451
448
462
464
466
446
487
554
683
784
757
579
359
229
259
341
446
475
465
436
445
438
446
452
455
447
456
462
462
450
464
475
504
489
465
442
441
462
490
496
490
482
482
482
501
494
503
511
519
536
517
497
508
498
507
510
499
480
475
460
453
453
464
447
440
427
432
420
428
434
447
443
439
413
419
439
439
423
425
413
428
432
439
431
447
433
429
421
450
452
456
447
432
433
439
430
441
456
456
440
441
425
434
438
457
449
452
446
440
434
453
442
440
439
442
446
449
436
445
445
452
444
443
443
449
449
471
459
451
440
447
456
471
456
439
439
463
475
473
468
472
478
496
471
451
433
433
425
430
436
444
445
447
433
424
442
469
467
458
432
436
435
456
477
534
634
747
786
673
472
307
246
295
383
451
459
459
447
441
428
440
448
455
450
455
474
475
461
457
456
467
479
484
462
459
472
479
481
481
470
473
496
511
518
519
505
502
505
525
526
518
513
495
491
490
478
466
459
461
467
459
449
450
443
444
441
442
434
436
437
432
425
420
417
431
443
450
445
427
428
438
452
458
447
427
425
423
426
445
440
434
433
431
429
440
448
450
444
455
434
443
454
440
441
434
427
435
443
444
439
438
447
450
445
454
458
456
461
443
432
424
426
443
442
451
451
438
454
451
444
443
452
457
457
468
449
426
429
445
451
449
454
439
434
441
457
446
473
460
433
422
425
443
453
442
438
441
455
460
454
450
466
462
457
439
425
435
462
480
479
463
447
446
453
442
449
448
454
454
435
415
424
430
436
430
426
433
455
449
449
433
456
453
449
493
588
705
784
734
549
332
254
273
349
427
454
450
449
441
437
423
436
449
441
436
454
471
493
476
461
443
464
455
466
480
478
461
461
449
452
469
492
480
488
488
516
515
542
517
508
506
508
509
487
461
448
464
493
494
462
451
477
486
468
440
399
372
408
419
425
411
431
446
461
490
452
421
409
402
432
434
422
389
418
444
465
489
463
434
403
414
450
446
426
410
425
455
485
460
429
434
453
437
420
394
418
442
459
439
444
470
492
510
497
393
386
405
410
440
454
421
433
459
464
453
491
464
446
401
388
452
497
481
434
429
491
509
502
445
404
385
414
418
447
483
531
502
467
471
480
434
418
400
406
428
489
479
462
484
530
489
476
448
432
449
494
479
465
463
455
455
489
459
424
404
406
404
446
452
419
404
459
508
518
476
428
387
392
430
487
525
604
733
806
707
534
323
239
264
342
392
431
427
446
447
437
438
439
459
507
513
478
430
387
393
463
482
478
441
455
467
489
504
504
478
472
469
498
482
481
458
467
500
535
529
519
507
522
520
528
504
468
445
454
457
462
453
444
422
429
423
445
462
452
426
426
408
416
426
423
412
446
449
444
433
435
424
434
423
428
421
437
432
427
422
435
429
439
446
448
443
470
450
460
456
477
455
444
431
422
428
452
435
438
443
495
495
445
426
412
403
447
459
457
456
465
436
433
443
495
489
447
435
429
421
439
433
424
438
477
467
447
446
469
469
461
445
431
424
451
465
463
449
454
444
454
450
450
439
460
475
489
461
442
434
451
473
483
457
447
441
459
465
491
483
487
467
471
463
480
462
461
450
443
433
438
421
447
451
464
444
447
449
466
448
453
461
464
492
554
654
774
796
682
467
280
230
305
371
437
455
460
462
454
448
447
457
483
462
458
450
459
461
467
475
487
481
484
479
490
491
497
477
476
474
493
511
514
505
503
508
520
535
549
532
532
530
517
504
504
493
492
486
477
462
461
457
454
454
468
449
439
416
425
434
448
445
434
420
426
429
437
447
480
442
439
423
437
460
461
434
422
429
463
472
473
450
447
440
449
458
468
466
448
430
431
440
455
465
455
448
468
467
461
440
435
445
460
458
449
438
446
467
471
468
459
443
454
454
471
465
443
436
450
462
480
454
438
449
469
474
475
465
470
462
458
458
458
465
476
476
478
488
483
463
461
461
466
458
435
426
439
456
467
460
456
445
448
457
465
468
463
455
454
498
595
689
787
755
616
415
270
244
316
417
452
449
459
471
471
463
454
464
472
477
470
469
484
487
480
466
470
493
493
477
470
481
490
491
502
508
511
532
533
508
493
502
508
534
544
536
519
517
526
538
541
542
506
478
464
429
434
437
431
445
447
441
428
430
438
449
457
442
420
422
412
424
427
425
424
443
440
434
436
446
453
457
440
434
441
458
458
444
429
429
435
446
445
448
445
452
450
446
458
455
435
424
420
430
441
446
444
453
456
463
456
438
434
435
429
444
433
439
445
449
445
441
436
445
455
456
444
454
442
451
459
450
432
434
442
461
470
482
463
460
448
451
469
472
442
428
410
423
444
448
417
424
434
444
444
441
434
445
452
469
505
584
675
767
728
585
372
225
213
319
420
453
446
444
439
435
423
446
459
477
454
427
424
461
471
475
453
455
457
463
476
483
461
464
453
465
485
496
489
492
487
508
516
522
516
520
494
493
486
483
489
498
480
475
455
453
444
475
464
449
415
398
409
423
426
427
405
413
420
429
418
436
461
450
422
417
397
433
432
444
416
416
441
449
437
446
443
451
431
419
431
443
444
445
426
421
434
451
426
432
445
458
448
445
430
445
448
448
430
423
418
443
450
451
432
442
443
454
450
447
431
439
438
448
436
445
441
451
446
452
445
456
454
476
490
485
465
447
429
428
427
436
431
451
445
442
430
434
450
460
454
443
424
444
444
448
437
460
518
643
753
768
647
454
286
249
310
399
435
438
426
438
450
452
431
442
445
452
451
462
455
468
469
474
455
460
467
471
468
473
461
458
467
489
487
508
513
506
503
508
515
538
537
522
496
494
502
519
505
492
459
452
449
459
460
449
435
447
436
445
444
439
418
433
421
417
413
423
417
437
443
446
428
438
437
439
438
449
418
431
446
448
440
442
428
438
435
442
442
453
447
443
447
458
463
454
428
426
439
448
444
438
429
439
442
441
444
462
464
464
454
451
448
437
429
433
432
445
444
450
457
478
469
455
434
441
445
459
466
462
455
481
476
467
460
451
442
463
472
463
446
437
411
423
441
457
442
428
432
443
446
456
439
438
467
547
647
744
788
688
489
307
220
257
344
432
441
445
438
454
444
455
474
471
476
483
457
454
446
435
447
478
470
471
464
469
475
490
484
491
490
509
506
500
502
497
498
503
499
522
530
530
512
508
503
511
492
488
495
494
469
434
405
412
439
452
436
429
437
435
426
427
433
442
433
442
441
434
429
422
417
438
446
445
431
436
444
464
449
446
455
451
453
455
440
433
430
435
437
450
439
443
443
438
442
452
460
484
457
437
429
432
444
450
434
429
447
460
446
444
440
470
508
501
462
431
418
445
474
472
449
437
443
448
441
445
450
455
451
455
461
466
451
422
407
411
438
458
450
450
492
574
692
800
785
624
372
204
211
307
407
444
423
427
449
458
426
434
468
486
488
481
474
461
454
449
443
461
482
481
471
464
479
496
501
496
493
498
516
512
504
490
483
514
532
526
519
517
516
519
518
513
509
505
490
442
425
417
426
427
438
431
425
425
427
426
436
447
451
438
435
411
399
407
435
436
443
436
431
436
452
451
442
436
447
442
454
458
443
445
443
441
440
430
433
432
442
450
449
436
446
452
465
444
430
422
424
434
453
449
446
451
455
440
448
464
464
465
479
466
454
441
430
428
439
448
442
430
433
436
443
441
440
448
472
453
431
418
416
431
465
496
569
684
773
732
580
367
255
253
325
392
445
449
457
447
435
420
444
474
471
454
449
447
466
464
477
478
486
473
475
464
475
483
493
463
474
492
502
518
508
502
523
521
546
538
523
514
505
497
510
507
502
470
473
462
473
474
446
436
442
447
459
442
432
421
426
425
430
425
439
433
436
425
439
435
444
436
452
452
466
456
440
409
420
427
451
452
451
438
444
440
456
450
455
441
443
441
458
448
447
439
430
425
443
450
447
443
451
434
454
455
454
444
448
443
445
457
457
445
453
447
466
471
475
460
456
457
470
468
459
445
459
447
452
444
436
416
421
433
452
453
447
434
433
439
465
485
533
613
717
770
704
542
348
226
263
345
437
456
451
440
456
448
445
448
467
471
478
452
435
439
462
469
484
468
469
467
500
477
491
477
485
485
498
486
493
494
507
496
509
508
520
520
515
508
516
502
502
494
502
482
475
451
453
444
442
423
429
427
452
443
446
445
453
435
429
417
433
451
450
434
426
411
435
439
446
439
443
441
463
444
445
439
446
448
456
436
429
429
446
443
448
439
443
443
452
448
456
453
457
440
452
435
459
453
450
434
444
436
451
450
450
445
451
449
466
473
475
454
456
435
452
450
453
446
448
445
462
461
463
457
461
455
473
481
487
485
470
451
469
461
470
455
438
423
439
445
454
443
444
441
462
461
463
446
459
462
461
463
487
555
677
784
752
605
418
267
251
328
427
465
475
456
457
443
458
455
447
447
476
476
471
457
453
450
469
477
484
500
506
487
484
459
465
478
499
490
495
499
509
512
514
515
528
529
525
515
510
506
515
497
483
467
477
461
457
460
452
451
444
440
455
449
459
433
427
441
437
432
428
426
446
444
441
425
444
458
453
450
453
451
466
445
423
407
426
448
451
438
442
441
457
459
465
448
454
462
480
448
443
422
429
448
452
436
435
447
464
460
451
439
455
472
469
451
437
428
439
445
439
436
454
460
471
456
450
461
464
471
453
428
434
429
444
454
461
451
461
453
462
469
471
489
491
492
484
468
446
447
455
446
447
455
450
434
441
447
452
456
470
465
447
430
411
418
445
457
460
450
486
583
718
793
756
617
400
247
250
313
389
437
441
440
445
468
458
443
459
468
467
458
472
462
457
464
466
458
465
467
459
460
476
495
489
497
491
478
490
503
534
532
518
505
495
496
507
508
511
507
505
502
483
473
471
465
458
464
458
442
436
438
437
438
431
418
408
425
436
428
416
426
436
441
437
431
436
442
442
432
426
434
450
440
422
430
450
468
458
450
455
454
447
433
423
437
444
444
432
429
440
445
440
442
445
456
462
450
441
444
435
442
445
435
437
437
450
452
456
441
441
445
444
455
448
440
457
463
463
442
423
429
461
487
479
484
472
472
454
450
437
448
450
450
429
423
424
430
433
448
452
442
437
438
438
458
465
466
481
526
621
740
765
676
473
275
201
275
364
440
463
451
442
456
454
451
451
453
447
443
466
469
461
461
458
464
479
495
483
482
477
481
464
479
470
483
488
500
502
510
523
533
520
520
522
530
523
519
496
486
491
495
472
455
444
452
444
443
441
442
455
457
417
411
397
415
437
443
419
414
421
441
447
440
422
424
435
461
463
450
408
413
417
441
456
451
433
439
442
446
439
449
437
449
442
452
456
454
439
429
420
438
433
447
442
441
431
439
434
457
471
471
452
433
408
426
425
448
442
454
446
458
459
463
465
487
495
489
451
431
406
421
450
451
440
434
434
450
442
440
442
453
464
457
441
430
415
443
444
468
532
635
743
774
668
479
286
241
289
396
422
441
424
443
461
443
437
442
446
469
460
470
477
483
473
469
442
464
477
481
473
474
464
477
495
511
497
499
490
512
510
521
513
518
507
523
514
509
503
508
510
506
495
484
466
461
436
427
415
437
431
442
435
437
439
442
433
456
441
437
425
415
424
442
423
427
422
435
431
435
440
449
449
457
449
450
443
442
430
451
450
456
432
426
431
449
447
452
442
454
460
460
427
424
433
465
450
452
420
436
449
466
454
448
448
461
456
457
452
454
441
447
427
439
445
449
443
450
449
465
462
472
470
483
462
462
461
477
479
474
431
426
438
458
439
432
429
449
454
463
462
469
449
444
427
432
439
453
434
463
525
622
729
794
704
523
309
223
277
393
442
456
428
442
454
445
425
450
461
466
460
465
468
483
468
453
465
468
460
468
462
474
478
482
471
488
500
527
507
502
504
486
489
508
500
508
506
509
504
509
501
494
483
489
474
473
454
441
424
422
418
434
433
438
437
437
444
445
431
434
442
445
431
430
414
433
440
439
427
432
439
444
445
462
455
466
448
434
419
441
447
445
430
434
434
445
454
456
449
452
451
457
467
460
442
425
422
440
446
455
446
446
458
460
448
451
442
457
461
457
431
433
439
455
460
446
429
437
446
461
442
456
453
464
473
470
438
435
441
463
463
464
450
453
468
486
479
478
468
486
481
459
439
432
417
445
447
443
441
444
440
455
445
458
471
476
466
456
450
504
629
750
776
683
479
295
236
310
398
462
472
461
442
441
419
427
450
473
457
451
454
474
476
481
479
476
485
479
471
463
459
463
462
482
501
499
498
501
506
517
519
522
520
516
501
493
495
520
523
514
487
476
468
468
472
463
444
449
459
450
430
429
419
434
451
440
434
427
430
437
438
443
440
443
439
434
445
448
435
434
433
448
457
460
433
417
421
443
467
470
450
437
435
442
451
455
457
454
434
438
433
445
469
460
449
448
448
448
451
440
435
448
449
450
458
455
448
452
450
437
449
444
457
447
448
447
440
448
457
462
463
464
463
466
450
450
437
431
454
470
473
474
470
460
462
470
472
469
468
432
413
410
438
459
457
446
436
434
446
456
449
443
454
465
479
510
579
698
779
744
591
358
223
237
342
418
459
458
461
465
454
437
441
447
459
456
453
462
472
461
460
466
486
487
473
471
494
487
489
480
470
488
505
507
509
515
524
520
498
498
522
534
527
513
505
498
507
490
466
447
458
465
452
438
434
430
443
448
462
449
433
416
411
405
432
429
428
416
430
433
436
439
439
440
477
461
440
431
431
420
444
433
434
442
449
438
440
438
449
448
454
452
456
444
438
426
439
435
440
438
443
449
456
438
435
433
451
463
462
455
444
424
435
432
444
446
453
435
444
434
451
447
446
445
460
468
465
449
439
427
444
458
472
468
486
472
465
454
466
455
450
431
428
440
461
458
453
429
441
446
445
437
441
430
464
460
465
475
541
636
744
772
676
469
305
219
273
368
443
460
462
445
457
441
443
467
486
460
466
449
455
453
456
461
482
479
474
455
471
487
506
484
490
501
510
488
484
471
503
518
520
506
513
515
523
523
530
520
519
487
475
455
462
451
448
439
445
437
442
427
443
444
438
428
423
422
450
445
436
411
411
414
442
436
434
423
441
445
445
443
456
452
460
435
430
429
448
443
439
431
445
440
451
440
441
443
452
443
449
444
467
464
461
433
423
425
443
450
445
435
445
458
472
455
453
437
449
453
462
443
442
426
424
421
434
429
444
442
452
444
452
443
443
431
436
440
460
460
463
433
444
445
471
464
468
465
468
458
452
442
458
453
450
434
430
423
442
444
450
447
453
435
438
425
449
453
447
437
476
545
688
781
760
626
414
248
252
308
402
452
449
422
434
449
450
446
466
451
457
454
457
454
464
457
475
471
479
478
482
462
471
469
474
482
500
499
501
491
495
492
520
515
521
518
532
522
520
490
486
494
505
482
463
447
466
472
453
432
433
432
458
458
444
430
438
427
427
421
434
430
438
432
440
423
444
443
444
451
457
446
455
444
444
420
436
430
444
446
446
440
459
446
444
440
457
455
453
445
451
456
465
437
426
419
447
456
454
442
451
450
458
462
460
438
445
442
464
454
458
446
453
461
448
414
414
438
465
481
468
441
443
443
456
462
466
455
450
442
445
455
454
445
468
468
481
461
456
450
471
489
490
493
482
458
466
451
457
447
450
434
444
457
458
449
449
442
455
464
477
449
440
439
450
483
548
632
749
778
685
492
305
249
306
381
440
451
471
446
440
421
424
459
476
468
461
466
480
478
471
477
474
469
456
455
486
482
481
472
471
476
495
501
492
499
513
534
537
515
505
484
497
516
529
507
486
479
485
481
472
469
463
454
450
443
441
433
447
434
426
421
434
433
430
443
447
447
451
453
432
423
431
432
437
445
440
439
446
456
447
454
455
458
446
454
451
449
449
438
428
432
442
444
451
456
462
443
441
444
452
451
468
463
454
448
428
427
439
452
453
444
446
449
446
453
448
449
470
480
458
444
434
425
440
460
449
438
443
453
452
463
456
456
441
461
476
465
458
450
436
441
455
456
464
470
485
481
468
464
455
465
475
467
468
440
429
429
433
440
438
442
453
454
445
445
441
456
467
505
554
634
734
760
669
491
314
239
275
371
443
464
450
454
453
451
449
459
456
446
449
456
469
474
464
463
472
481
487
479
467
472
473
492
494
489
498
507
489
495
497
501
498
528
520
513
524
530
521
502
487
486
470
474
469
467
450
454
448
432
433
439
431
437
439
437
438
423
412
425
431
452
436
437
425
427
449
442
432
429
425
446
443
450
437
436
441
459
458
444
428
429
434
449
448
439
427
449
448
454
454
435
443
445
429
443
449
450
444
447
440
442
453
454
432
437
445
458
445
440
434
431
440
456
449
453
449
455
448
455
452
462
449
457
457
469
468
472
461
460
452
460
450
457
451
458
448
434
430
443
443
447
441
430
421
456
450
456
460
479
552
620
704
768
699
555
360
230
219
323
408
447
441
454
469
464
448
449
442
460
448
444
444
475
482
473
460
475
489
500
482
481
479
489
472
477
480
489
499
509
500
514
524
547
530
561
529
522
500
489
494
508
490
487
463
463
454
461
451
455
430
430
435
436
426
421
401
418
424
426
422
439
430
447
432
433
436
470
460
446
427
432
425
451
445
440
434
447
433
439
439
449
445
460
450
437
436
446
447
451
438
434
420
442
443
449
437
445
432
442
453
469
454
459
432
432
443
456
438
439
429
434
432
462
471
477
474
465
448
453
454
485
469
471
457
447
435
453
446
454
438
451
429
442
448
465
447
437
419
428
439
466
454
448
464
539
627
727
757
686
506
344
242
258
331
420
450
456
450
446
437
445
453
465
452
459
479
477
454
453
444
477
477
471
450
455
470
493
491
498
491
490
491
504
512
520
510
492
496
522
514
527
508
526
511
497
486
480
469
472
479
466
445
443
414
411
435
455
444
435
421
427
417
438
452
455
432
432
405
415
429
446
445
444
436
434
425
439
434
446
447
455
458
453
431
435
437
460
442
443
429
444
449
452
436
441
444
459
455
458
448
448
435
436
425
454
449
444
437
441
440
448
447
444
443
466
461
463
436
435
433
449
457
464
454
450
453
451
446
467
474
488
473
463
452
447
448
457
440
440
438
445
452
457
446
441
427
437
445
448
438
455
449
461
500
604
721
769
728
547
353
266
272
341
420
463
447
442
436
441
435
450
449
452
457
471
472
470
467
473
471
480
471
471
465
458
465
471
475
489
496
506
503
506
508
515
529
528
512
497
498
507
522
514
488
485
484
481
469
465
456
453
447
451
439
454
441
431
413
412
428
437
427
429
430
438
429
433
431
453
458
454
449
446
450
448
428
423
419
446
447
444
442
442
434
435
453
463
467
471
452
429
430
438
431
438
438
448
448
455
449
436
435
457
458
457
462
448
427
439
434
451
456
468
444
437
452
456
447
448
449
464
466
459
435
432
451
466
465
459
441
460
478
490
490
473
463
466
471
457
450
447
447
437
438
436
438
448
454
445
446
452
440
431
442
475
472
471
497
582
697
784
754
557
351
237
248
329
432
474
465
444
448
435
444
453
455
452
450
456
464
463
467
473
472
474
487
488
499
472
450
452
469
478
497
498
492
499
516
508
506
520
535
536
545
540
498
479
490
475
485
487
454
446
440
443
447
456
453
444
446
434
429
425
429
434
445
435
422
417
428
429
433
436
436
440
436
439
443
438
451
442
441
455
446
439
433
419
434
447
447
444
447
445
452
452
464
451
451
445
435
420
431
436
444
446
455
441
447
455
454
455
461
452
475
467
445
432
421
424
450
448
440
433
446
447
448
447
450
460
451
451
475
488
481
448
438
425
458
485
482
460
467
462
462
449
458
455
462
459
450
429
423
422
435
440
446
436
442
447
459
451
461
466
513
585
710
780
746
601
383
225
239
332
423
453
449
435
458
471
466
451
452
449
454
454
452
451
465
470
476
472
471
470
487
478
484
471
480
490
502
506
516
505
490
493
500
519
538
519
506
511
533
535
526
493
479
465
470
464
463
440
433
427
435
441
444
427
427
432
447
444
426
417
420
433
448
434
433
